time,position,velocity
0.0,0.0,0.0
0.001,0.0,0.010028
0.002,1.0028000000000001e-05,0.010022986000000001
0.003,2.0050986000000003e-05,0.010017874227000002
0.004,3.0068860227000005e-05,0.010012664780026501
0.005,4.0081525007026505e-05,0.010007357759034217
0.006,5.008888276606072e-05,0.01000195326490463
0.007,6.009083603096535e-05,0.009996451399444517
0.008,7.008728743040987e-05,0.009990852265384485
0.009000000000000001,8.007813969579436e-05,0.00998515596637749
0.01,9.006329566217185e-05,0.009979362606997343
0.011,0.0001000426582691692,0.020028569138008323
0.012,0.00012007122740717752,0.020017554426856626
0.013000000000000001,0.00014008878183403414,0.020006344937369126
0.014,0.00016009512677140326,0.0199949408770821
0.015,0.00018009006764848536,0.019983342455375846
0.016,0.0002000734101038612,0.019971549883471672
0.017,0.00022004495998733287,0.019959563374428897
0.018000000000000002,0.00024000452336176177,0.01994738314314181
0.019,0.0002599519065049036,0.01993500940633662
0.02,0.0002798869159112402,0.019922442382568403
0.021,0.00029980935829380863,0.029990873064452972
0.022,0.0003298002313582616,0.029972879534337808
0.023,0.0003597731108925994,0.029954595092257057
0.024,0.00038972770598485644,0.029936020063602003
0.025,0.00041966372604845847,0.029917154776510354
0.026000000000000002,0.00044958088082496883,0.029897999561861614
0.027,0.0004794788803868305,0.029878554753272432
0.028,0.0005093574351401029,0.029858820687091926
0.029,0.0005392162558271948,0.029838797702396978
0.03,0.0005690550535295918,0.029818486140987508
0.031,0.0005988735396705794,0.039904169504699
0.032,0.0006387777091752784,0.039878228684549946
0.033,0.0006786559378598283,0.039851901793115915
0.034,0.0007185078396529442,0.03982518928284076
0.035,0.000758333028935785,0.03979809160980281
0.036000000000000004,0.0007981311205455878,0.03977060923370855
0.037,0.0008379017297792964,0.03974274261788624
0.038,0.0008776444723971827,0.0397144922292795
0.039,0.0009173589646264622,0.039685858538440894
0.04,0.0009570448231649031,0.03965684201952541
0.041,0.0009967016651844286,0.04975781961264987
0.042,0.0010464594847970784,0.049722973686191704
0.043000000000000003,0.00109618245848327,0.04968764760450064
0.044,0.0011458701060877707,0.04965184195611356
0.045,0.0011955219480438842,0.04961555733407463
0.046,0.0012451375053779588,0.04957879433592715
0.047,0.0012947162997138859,0.049541553563705404
0.048,0.0013442578532775913,0.049503835623926414
0.049,0.0013937616889015177,0.04946564112758167
0.05,0.0014432273300290994,0.049426970690128864
0.051000000000000004,0.0014926543007192283,0.05954129915841551
0.052000000000000005,0.0015521955998776438,0.05949660196582911
0.053,0.001611692201843473,0.059451331708847414
0.054,0.0016711435335523203,0.059405489120974556
0.055,0.001730549022673295,0.059359074941078546
0.056,0.0017899080976143734,0.05931208991338127
0.057,0.0018492201875277548,0.05926453478744844
0.058,0.0019084847223152033,0.05921641031817944
0.059000000000000004,0.0019677011326333827,0.0591677172657972
0.06,0.00202686884989918,0.059118456395837966
0.061,0.002085987306295018,0.05906862847914106
0.062,0.002145055934774159,0.0691932225113633
0.063,0.0022142491572855224,0.06913717534075987
0.064,0.0022833863326262825,0.06908046426151664
0.065,0.0023524667968877993,0.06902309016605962
0.066,0.002421489887053859,0.06896505395300771
0.067,0.0024904549410068666,0.06890635652716066
0.068,0.0025593612975340274,0.06884699879948701
0.069,0.0026282082963335145,0.06878698168711193
0.07,0.0026969952780206263,0.06872630611330505
0.07100000000000001,0.0027657215841339314,0.07886177563140791
0.07200000000000001,0.0028445833597653394,0.07879468752775086
0.073,0.0029233780472930904,0.07872684435038933
0.074,0.0030021048916434798,0.07865824714774121
0.075,0.003080763138791221,0.0785888969752509
0.076,0.003159352035766472,0.07851879489537536
0.077,0.0032378708306618474,0.07844794197757
0.078,0.0033163187726394172,0.0783763392982746
0.079,0.003394695111937692,0.07830398794089907
0.08,0.003472999099878591,0.07823088899580924
0.081,0.0035512299888744003,0.08837398890205889
0.082,0.003639603977776459,0.08829428960771911
0.083,0.003727898267384178,0.08821374642313748
0.084,0.0038161120138073155,0.08813236056725207
0.085,0.0039042443743745677,0.08805013326683037
0.08600000000000001,0.003992294507641398,0.0879670657564532
0.08700000000000001,0.004080261573397851,0.08788315927849856
0.088,0.00416814473267635,0.08779841508312533
0.089,0.004255943147759475,0.087712834428257
0.09,0.004343655982187731,0.08762641857956528
0.091,0.004431282400767297,0.09777528596100937
0.092,0.0045290576867283066,0.0976820854940212
0.093,0.004626739772222328,0.09758795387440691
0.094,0.004724327726096735,0.09749289249974749
0.095,0.004821820618596482,0.09739690277623665
0.096,0.004919217521372719,0.09729998611866257
0.097,0.005016517507491382,0.09720214395038951
0.098,0.005113719651441771,0.0971033777033394
0.099,0.005210823029145111,0.09700368881797332
0.1,0.005307826717963084,0.09690307874327288
0.101,0.005404729796706357,0.10705587576077151
0.10200000000000001,0.005511785672467128,0.10694830052492406
0.10300000000000001,0.005618733972992052,0.10683970851793692
0.10400000000000001,0.005725573681509989,0.10673010132394803
0.105,0.005832303782833937,0.10661948053647095
0.106,0.005938923263370408,0.10650784775837438
0.107,0.006045431111128783,0.10639520460186148
0.108,0.006151826315730644,0.10628155268844927
0.109,0.006258107868419093,0.10616689364894774
0.11,0.006364274762068041,0.10605122912343908
0.111,0.00647032599119148,0.11620614490517218
0.112,0.006586532136096652,0.11608333857280768
0.113,0.006702615474669459,0.11595943158216031
0.114,0.00681857490625162,0.11583442571162253
0.115,0.006934409331963242,0.1157083227497042
0.116,0.007050117654712947,0.11558112449500972
0.117,0.007165698779207957,0.11545283275621508
0.11800000000000001,0.007281151611964172,0.1153234493520449
0.11900000000000001,0.0073964750613162164,0.11519297611124923
0.12,0.007511668037427466,0.11506141487258045
0.121,0.007626729452300046,0.12521666736922676
0.122,0.007751946119669273,0.12507779174101916
0.123,0.007877023911410291,0.12493773338395195
0.124,0.008001961644794242,0.12479649427814588
0.125,0.008126758139072389,0.12465407641455886
0.126,0.008251412215486947,0.12451048179496085
0.127,0.008375922697281908,0.1243657124319085
0.128,0.008500288409713817,0.12421977034871973
0.129,0.008624508180062536,0.12407265757944823
0.13,0.008748580837641984,0.12392437616885787
0.131,0.008872505213810842,0.1340782139685883
0.132,0.00900658342777943,0.13392244980946588
0.133,0.009140505877588896,0.13376542275028336
0.134,0.00927427130033918,0.13360713498013232
0.135,0.009407878435319312,0.13344758869963888
0.136,0.009541326024018951,0.13328678612093586
0.137,0.009674612810139887,0.1331247294676352
0.138,0.009807737539607522,0.1329614209748
0.139,0.009940698960582322,0.1327968628889165
0.14,0.010073495823471237,0.13263105746786624
0.14100000000000001,0.010206126880939104,0.14278176156934752
0.14200000000000002,0.010348908642508451,0.14260830941975344
0.14300000000000002,0.010491516951928204,0.1424335161786185
0.14400000000000002,0.010633950468106822,0.1422573842510099
0.145,0.010776207852357831,0.1420799160542033
0.146,0.010918287768412034,0.14190111401765262
0.147,0.011060188882429687,0.14172098058295968
0.148,0.011201909863012647,0.1415395182038439
0.149,0.011343449381216491,0.14135672934611185
0.15,0.011484806110562603,0.14117261648762663
0.151,0.01162597872705023,0.1513185020292851
0.152,0.011777297229079515,0.15112658299099996
0.153,0.011928423812070515,0.15093324672721367
0.154,0.01207935705879773,0.15073849586572935
0.155,0.012230095554663459,0.15054233304720852
0.156,0.012380637887710667,0.15034476092513827
0.157,0.012530982648635806,0.1501457821657986
0.158,0.012681128430801604,0.14994539944822935
0.159,0.012831073830249834,0.1497436154641972
0.16,0.012980817445714032,0.1495404329181626
0.161,0.013130357878632195,0.1596798508620143
0.162,0.01329003772949421,0.15946870735779697
0.163,0.013449506436852006,0.15925607262682312
0.164,0.013608762509478829,0.1590419495261412
0.165,0.01376780445900497,0.15882634092628334
0.166,0.013926630799931252,0.15860924971123014
0.167,0.014085240049642482,0.1583906787783752
0.168,0.014243630728420857,0.15817063103848958
0.169,0.014401801359459347,0.15794910941568613
0.17,0.014559750468875032,0.1577261168473837
0.171,0.014717476585722415,0.16785745561579443
0.17200000000000001,0.014885334041338209,0.1676263521221293
0.17300000000000001,0.015052960393460338,0.16739368560565487
0.17400000000000002,0.015220354079065994,0.16715945915891744
0.17500000000000002,0.015387513538224911,0.1669236758885473
0.176,0.015554437214113459,0.16668633891522078
0.177,0.01572112355302868,0.16644745137362205
0.178,0.0158875710044023,0.16620701641240496
0.179,0.016053778020814705,0.16596503719415473
0.18,0.01621974305800886,0.1657215168953495
0.181,0.01638546457490421,0.16547645870632174
0.182,0.01655094103361053,0.17559494922867433
0.183,0.016726535982839207,0.17534164234372387
0.184,0.01690187762518293,0.17508670616272362
0.185,0.017076964331345652,0.17483014403339042
0.186,0.017251794475379043,0.17457195931806027
0.187,0.017426366434697103,0.17431215539364744
0.188,0.017600678590090752,0.17405073565160364
0.189,0.017774729325742356,0.17378770349787692
0.19,0.017948517029240232,0.17352306235287057
0.191,0.018122040091593104,0.17325681565140175
0.192,0.018295296907244504,0.18336417706782546
0.193,0.01847866108431233,0.1830895420102191
0.194,0.018661750626322547,0.18281321062837086
0.195,0.018844563836950916,0.18253518651679346
0.196,0.01902709902346771,0.18225547328516556
0.197,0.019209354496752876,0.1819740745582883
0.198,0.019391328571311164,0.1816909939760416
0.199,0.019573019565287206,0.18140623519334048
0.2,0.019754425800480545,0.18111980188009094
0.201,0.019935545602360636,0.1808316977211461
0.202,0.020116377300081784,0.1909264433910427
0.203,0.020307303743472827,0.19062981639634635
0.20400000000000001,0.020497933559869175,0.19033142845071346
0.20500000000000002,0.02068826498831989,0.19003128340088943
0.20600000000000002,0.02087829627172078,0.1897293851093058
0.20700000000000002,0.021068025656830084,0.18942573745403393
0.20800000000000002,0.02125745139428412,0.18912034432873862
0.209,0.02144657173861286,0.1888132096426314
0.21,0.021635384948255492,0.18850433732042396
0.211,0.021823889285575916,0.1881937313022812
0.212,0.0220120830168782,0.19827441801282294
0.213,0.022210357434891023,0.19795515997364777
0.214,0.02240831259486467,0.19763407881931203
0.215,0.022605946673683982,0.19731117865395373
0.216,0.022803257852337937,0.1969864635978899
0.217,0.023000244315935826,0.19665993778756757
0.218,0.023196904253723394,0.19633160537551445
0.219,0.02339323585909891,0.19600147053028946
0.22,0.023589237329629198,0.19566953743643334
0.221,0.023784906867065633,0.19533581029441882
0.222,0.023980242677360052,0.20540103963644243
0.223,0.024185643716996493,0.2050585366898506
0.224,0.024390702253686343,0.2047141509843357
0.225,0.024595416404670677,0.20436788688630667
0.226,0.024799784291556985,0.20401974877881682
0.227,0.0250038040403358,0.20366974106151184
0.228,0.025207473781397313,0.20331786815057773
0.229,0.02541079164954789,0.20296413447868847
0.23,0.025613755784026578,0.20260854449495364
0.231,0.02581636432852153,0.2022511026648659
0.232,0.026018615431186397,0.21229952235327396
0.233,0.026230914953539672,0.21193318643778544
0.234,0.026442848139977458,0.21156491069503117
0.23500000000000001,0.02665441305067249,0.21119469975828387
0.23600000000000002,0.026865607750430773,0.210822558277898
0.23700000000000002,0.027076430308708672,0.21044849092125475
0.23800000000000002,0.027286878799629925,0.21007250237270705
0.23900000000000002,0.027496951302002633,0.2096945973335244
0.24,0.027706645899336156,0.20931478052183763
0.241,0.027915960679857993,0.20893305667258336
0.242,0.028124893736530578,0.2189633618100618
0.243,0.028343857098340638,0.21857263119179146
0.244,0.028562429729532428,0.21817990630521217
0.245,0.02878060963583764,0.21778519205476424
0.246,0.028998394827892404,0.21738849336237848
0.247,0.029215783321254782,0.21698981516741836
0.248,0.0294327731364222,0.2165891624266221
0.249,0.02964936229884882,0.21618654011404456
0.25,0.029865548838962863,0.21578195322099905
0.251,0.030081330792183864,0.21537540675599892
0.252,0.03029670619893986,0.22538634103892696
0.253,0.030522092539978788,0.2249706808064181
0.254,0.030747063220785208,0.2245529745406151
0.255,0.030971616195325822,0.22413322742113695
0.256,0.031195749422746957,0.22371144464547313
0.257,0.03141946086739243,0.2232876314289229
0.258,0.03164274849882136,0.22286179300453451
0.259,0.03186561029182589,0.22243393462304403
0.26,0.03208804422644894,0.22200406155281424
0.261,0.032310048288001755,0.22157217907977333
0.262,0.03253162046708153,0.23156253594527107
0.263,0.0327631830030268,0.23112143847262762
0.264,0.03299430444149943,0.23067824592336103
0.265,0.03322498268742279,0.23023296375598434
0.266,0.033455215651178774,0.22978559744723212
0.267,0.03368500124862601,0.2293361524919967
0.268,0.033914337401118,0.22888463440326445
0.269,0.03414322203552127,0.22843104871205164
0.27,0.03437165308423332,0.2279754009673404
0.271,0.03459962848520066,0.22751769673601438
0.272,0.03482714618193667,0.23748632044914242
0.273,0.03506463250238581,0.2370193058270985
0.274,0.03530165180821291,0.2365501498491611
0.275,0.03553820195806207,0.23607885825615438
0.276,0.03577428081631823,0.23560543680744567
0.277,0.03600988625312567,0.23512989128087877
0.278,0.03624501614440655,0.2346522274727071
0.279,0.036479668371879256,0.23417245119752667
0.28,0.036713840823076785,0.2336905682882091
0.281,0.036947531391364995,0.23320658459583424
0.28200000000000003,0.03718073797596083,0.24315237127603012
0.28300000000000003,0.03742389034723686,0.2426589877106325
0.28400000000000003,0.037666549334947494,0.24216341931330482
0.28500000000000003,0.0379087127542608,0.24166567211029868
0.28600000000000003,0.0381503784263711,0.24116575214670094
0.28700000000000003,0.0383915441785178,0.2406636654863639
0.28800000000000003,0.03863220784400416,0.24015941821183553
0.289,0.038872367262216,0.23965301642428957
0.29,0.03911202027864029,0.23914446624345526
0.291,0.039351164744883746,0.23863377380754713
0.292,0.039589798518691294,0.24855567239345394
0.293,0.039838354191084745,0.2480354965720703
0.294,0.040086389687656813,0.24751309528187343
0.295,0.040333902782938684,0.24698847483735592
0.296,0.04058089125777604,0.24646164157210784
0.297,0.04082735289934815,0.24593260183874402
0.298,0.04107328550118689,0.24540136200883117
0.299,0.041318686863195724,0.24486792847281488
0.3,0.04156355479166854,0.2443323076399465
0.301,0.04180788709930849,0.24379450593820987
0.302,0.042051681605246694,0.25369151909012405
0.303,0.04230537312433682,0.25314415651452654
0.304,0.042558517280851346,0.2525945307050259
0.305,0.04281111181155637,0.2520426482668649
0.306,0.043063154459823234,0.2514885158246159
0.307,0.04331464297564785,0.25093214002210534
0.308,0.043565575115669955,0.2503735275223378
0.309,0.04381594864319229,0.24981268500741996
0.31,0.04406576132819971,0.24924961917848432
0.311,0.0443150109473782,0.24868433675561308
0.312,0.044563695284133814,0.25855552169485063
0.313,0.04482225080582866,0.2579806069811619
0.314,0.045080231412809826,0.257403394169613
0.315,0.045337634806979436,0.25682389015840007
0.316,0.04559445869713784,0.2562421018652511
0.317,0.04585070079900309,0.25565803622734706
0.318,0.046106358835230433,0.25507170020124337
0.319,0.04636143053543168,0.25448310076279046
0.32,0.046615913636194474,0.25389224490705475
0.321,0.046869805881101526,0.2532991396482393
0.322,0.04712310502074976,0.26314360893279143
0.323,0.047386248629682555,0.26254080607811753
0.324,0.047648789435760674,0.26193567318878164
0.325,0.047910725108949455,0.26132821745782964
0.326,0.04817205332640728,0.2607184460980112
0.327,0.048432771772505295,0.26010636634169815
0.328,0.04869287813884699,0.25949198544080226
0.329,0.04895237012428779,0.2588753106666934
0.33,0.04921124543495448,0.25825634931011715
0.331,0.0494695017842646,0.25763510868111256
0.332,0.04972713689294571,0.267452030917035
0.333,0.04999458892386274,0.266821033532647
0.334,0.05026140995739539,0.2661876771266421
0.335,0.05052759763452203,0.2655519691885048
0.336,0.050793149603710536,0.26491391722756535
0.337,0.0510580635209381,0.2642735287729145
0.338,0.051322337049711016,0.2636308113733187
0.339,0.05158596786108433,0.2629857725971349
0.34,0.051848953633681465,0.2623384200322255
0.341,0.05211129205371369,0.2616887612858726
0.342,0.05237298081499956,0.2714773617739262
0.343,0.05264445817677349,0.2708178932848892
0.34400000000000003,0.05291527607005838,0.270156039756479
0.34500000000000003,0.053185432109814856,0.2694918089759002
0.34600000000000003,0.05345492391879075,0.26882520875031407
0.34700000000000003,0.05372374912754107,0.268156246906751
0.34800000000000003,0.05399190537444782,0.2674849312920222
0.34900000000000003,0.05425939030573984,0.26681126977263175
0.35000000000000003,0.054526201575512474,0.266135270234688
0.35100000000000003,0.054792336845747164,0.2654569405838156
0.352,0.05505779378633098,0.2752165019009479
0.353,0.055333010288231926,0.2745283157121341
0.354,0.05560753860394406,0.27383772145139573
0.355,0.05588137632539546,0.27314472720463057
0.356,0.05615452105260009,0.2724493410777743
0.357,0.05642697039367786,0.2717515711967094
0.358,0.05669872196487457,0.2710514257071743
0.359,0.05696977339058174,0.27034891277467193
0.36,0.057240122303356414,0.2696440405843788
0.361,0.05750976634394079,0.26893681734105307
0.362,0.05777870316128184,0.2786666798563852
0.363,0.058057369841138226,0.2779495594848442
0.364,0.05833531940062307,0.27723001100669037
0.365,0.058612549411629765,0.2765080428071808
0.366,0.05888905745443695,0.2757836632916609
0.367,0.05916484111772861,0.2750568808854707
0.368,0.05943989799861408,0.2743277040338507
0.369,0.05971422570264793,0.27359614120184766
0.37,0.05998782184384978,0.27286220087422025
0.371,0.060260684044724,0.27212589155534467
0.372,0.06053280993627934,0.28182545388040076
0.373,0.06081463539015974,0.2810792130540978
0.374,0.061095714603213835,0.2803305270936691
0.375,0.061376045130307505,0.27957940468409015
0.376,0.06165562453499159,0.278825854530445
0.377,0.061934450389522035,0.2780698853578299
0.378,0.06221252027487986,0.27731150591125575
0.379,0.062489831780791115,0.27655072495555133
0.38,0.06276638250574666,0.27578755127526566
0.381,0.06304217005702192,0.2750219936745706
0.382,0.0633171920506965,0.2846907130475595
0.383,0.06360188276374405,0.28391519577052876
0.384,0.06388579795951459,0.2831372193450061
0.385,0.06416893517885959,0.28235679275573844
0.386,0.06445129197161532,0.281573925007572
0.387,0.0647328658966229,0.2807886251253521
0.388,0.06501365452174826,0.2800009021538232
0.389,0.06529365542390209,0.2792107651575288
0.39,0.06557286618905961,0.278418223220711
0.391,0.06585128441228032,0.2776232854472101
0.392,0.06612890769772753,0.287260678051244
0.393,0.06641616837577877,0.2864557586352411
0.394,0.06670262413441401,0.2856483690721657
0.395,0.06698827250348617,0.28483851864628545
0.396,0.06727311102213246,0.28402621666192746
0.397,0.06755713723879439,0.2832114724433752
0.398,0.06784034871123777,0.28239429533476557
0.399,0.06812274300657253,0.2815746946999858
0.4,0.06840431770127252,0.2807526799225701
0.401,0.06868507038119509,0.2799282604055961
0.402,0.06896499864160069,0.28953390162080184
0.403,0.06925453254322149,0.2886994846835754
0.404,0.06954323202790506,0.2878625896158014
0.405,0.06983109461752086,0.28702322600071445
0.406,0.07011811784352158,0.28618140344153886
0.40700000000000003,0.07040429924696312,0.28533713156138285
0.40800000000000003,0.0706896363785245,0.2844904200031325
0.40900000000000003,0.07097412679852763,0.2836412784293457
0.41000000000000003,0.07125776807695698,0.2827897165221458
0.41100000000000003,0.07154055779347913,0.28193574398311516
0.41200000000000003,0.07182249353746224,0.29150926857266823
0.41300000000000003,0.07211400280603492,0.2906452890030073
