time,position,velocity
0.0,0.0,0.0
0.01,0.0,0.100028
0.02,0.00100028,0.19958386
0.03,0.0029961186,0.29846985669216003
0.04,0.005980817166921601,0.39649017178953844
0.05,0.009945718884816986,0.493451278135165
0.06,0.014880231666168637,0.5891623201253555
0.07,0.020771854867422192,0.6834354877028381
0.08,0.027606209744450574,0.7760863831902463
0.09,0.035367073576353034,0.8669343802509388
0.1,0.04403641737886242,0.9558029742818873
0.11,0.05359444712168129,1.0425201235624926
0.12,0.06401964835730622,1.1269185805036117
0.13,0.07528883416234235,1.2088362123627463
0.14,0.08737719628596981,1.2881163108142213
0.15,0.10025835939411203,1.3646078897872174
0.16,0.1139044382919842,1.438165971009657
0.17,0.12828609800208077,1.508651856722138
0.18,0.14337261656930214,1.5759333890532932
0.19,0.15913195045983508,1.6398851955760843
0.2,0.17553080241559593,1.700388920593542
0.21,0.19253469162153136,1.7573334417322928
0.22,0.21010802603885428,1.810615071452797
0.23,0.22821417675338226,1.8601377431165054
0.24,0.24681555418454731,1.9058131812820402
0.25,0.2658736859973677,1.9475610559349974
0.26,0.2853492965567177,1.9853091203889177
0.27,0.3052023877606069,2.0189933326283946
0.28,0.3253923210868908,2.048557959899039
0.29,0.3458779006858812,2.073955666383083
0.3,0.366617457349712,2.0951475838336897
0.31,0.3875689331880489,2.1121033650754715
0.32,0.40868996683880365,2.124801220313248
0.33,0.42993797904193615,2.133227936225613
0.34,0.45127025840419227,2.1373788778543763
0.35000000000000003,0.472644047182736,2.137257973335309
0.36,0.4940166269160891,2.132877681549808
0.37,0.5153454037315872,2.1242589428110095
0.38,0.5365879931596973,2.111431112731501
0.39,0.5577023042870123,2.0944318794529595
0.4,0.5786466230815419,2.073307164450828
0.41000000000000003,0.5993796947260502,2.0481110071593545
0.42,0.6198608047976438,2.0189054336939845
0.43,0.6400498591345837,1.9857603099790884
0.44,0.6599074622343746,1.948753179619323
0.45,0.6793949940305678,1.9079690868824557
0.46,0.6984746848993924,1.8635003851902012
0.47000000000000003,0.7171096887512943,1.815446531541466
0.48,0.735264154066709,1.763913867319309
0.49,0.7529032927399021,1.7090153859588662
0.5,0.7699934465994908,1.65087048797839
0.51,0.7865021514792747,1.5896047238993938
0.52,0.8023981987182687,1.5253495256045944
0.53,0.8176516939743146,1.458241926703906
0.54,0.8322341132413537,1.3884242724990805
0.55,0.8461183559663444,1.3160439201567007
0.56,0.8592787951679114,1.2412529297170676
0.5700000000000001,0.871691324465082,1.1642077465830545
0.58,0.8833334019309126,1.0850688761481924
0.59,0.8941840906923945,1.0040005512370842
0.6,0.9042240962047653,0.9211703930436959
0.61,0.9134358001352022,0.8367490662641066
0.62,0.9218032907978433,0.7509099291299242
0.63,0.9293123900891426,0.663828679056742
0.64,0.93595067687971,0.5756829946287435
0.65,0.9417075068259975,0.4866521746458188
0.66,0.9465740285724557,0.3969167749633601
0.67,0.9505431963220893,0.306658243857222
0.68,0.9536097787606616,0.21605855664719087
0.6900000000000001,0.9557703643271335,0.12529985031169016
0.7000000000000001,0.9570233628302504,0.03456405882437141
0.71,0.9573690034184941,-0.05596745006029337
0.72,0.9568093289178912,-0.14611423585027927
0.73,0.9553481865593884,-0.2356971434724044
0.74,0.9529912151246643,-0.324538657833942
0.75,0.9497458285463249,-0.4124632540907506
0.76,0.9456211960054174,-0.4992977429338065
0.77,0.9406282185760794,-0.5848716102179539
0.78,0.9347795024738998,-0.669017350269933
0.79,0.9280893289712006,-0.7515707922272856
0.8,0.9205736210489277,-0.8323714187755228
0.81,0.9122499068611725,-0.9112626766679536
0.8200000000000001,0.9031372800944929,-0.9880922784307633
0.8300000000000001,0.8932563573101853,-1.0627124946752657
0.84,0.8826292323634326,-1.1349804364596887
0.85,0.8712794279988357,-1.2047583271643452
0.86,0.8592318447271923,-1.271913763366543
0.87,0.8465127070935269,-1.3363199642250534
0.88,0.8331495074512764,-1.397856008908337
0.89,0.819170947362193,-1.4564070616259626
0.9,0.8046068767459333,-1.5118645838487095
0.91,0.7894882309074462,-1.5641265333296397
0.92,0.7738469655741499,-1.6130975495659332
0.93,0.7577159900784906,-1.658689125369422
0.9400000000000001,0.7411290988247964,-1.7008197642424838
0.9500000000000001,0.7241209011823715,-1.7394151232852084
0.96,0.7067267499495195,-1.7744081413894677
0.97,0.6889826685356247,-1.8057391525056339
0.98,0.6709252770105684,-1.8333559837981592
0.99,0.6525917171725868,-1.8572140385369669
1.0,0.6340195767872171,-1.8772763636025651
1.01,0.6152468131511915,-1.8935137015139114
1.02,0.5963116761360523,-1.905904526919264
1.03,0.5772526308668596,-1.9144350675214938
1.04,0.5581082801916447,-1.9190993094405384
1.05,0.5389172870972393,-1.91989898704679
1.06,0.5197182972267714,-1.916843557330168
1.07,0.5005498616534697,-1.909950158900358
1.08,0.4814503600644661,-1.899243555744163
1.09,0.4624579245070245,-1.8847560658960298
1.1,0.4436103638480642,-1.8665274752075354
1.11,0.4249450890959888,-1.844604936430879
1.12,0.40649903973168006,-1.8190428538601855
1.1300000000000001,0.3883086111930782,-1.7899027538025962
1.1400000000000001,0.3704095836550522,-1.757253141178688
1.1500000000000001,0.35283705224326534,-1.7211693425786365
1.16,0.33562535881747896,-1.6817333361266906
1.17,0.31880802545621206,-1.6390335685318942
1.18,0.3024176897708931,-1.5931647597275311
1.19,0.2864860421736178,-1.5442276955254395
1.2,0.2710437652183634,-1.4923290087340841
1.21,0.25612047513102254,-1.437580949211061
1.22,0.24174466563891192,-1.3801011433414883
1.23,0.22794365420549703,-1.3200123434534792
1.24,0.21474353077096225,-1.257442167700545
1.25,0.2021691090939568,-1.19252283095833
1.26,0.1902438807843735,-1.1253908672994797
1.27,0.17898997211137868,-1.056186844625669
1.28,0.16842810366512198,-0.9850550720498475
1.29,0.1585775529446235,-0.9121433006345564
1.3,0.14945611993827793,-0.8376024181037245
1.31,0.14108009575724068,-0.7615861381556359
1.32,0.1334642343756843,-0.6842506850137615
1.33,0.12662172752554668,-0.6057544738598477
1.34,0.1205641827869482,-0.5262577878000467
1.35,0.11530160490894774,-0.445922452019943
1.36,0.1108423803887483,-0.3649115057880772
1.37,0.10719326533086752,-0.2833888729699817
1.3800000000000001,0.1043593766011677,-0.2015190317158298
1.3900000000000001,0.1023441862840094,-0.11946668398455351
1.4000000000000001,0.10114951944416387,-0.037396425565717914
1.41,0.10077555518850669,0.044527582742448196
1.42,0.10122083101593117,0.12614194214465962
1.43,0.10248225043737777,0.20728434040110666
1.44,0.10455509384138884,0.2877938732789699
1.45,0.10743303257417854,0.36751136226901404
1.46,0.11110814619686868,0.44627966794263796
1.47,0.11557094287629506,0.5239439983352622
1.48,0.12081038285964768,0.6003522117536375
1.49,0.12681390497718406,0.6753551134175304
1.5,0.13356745611135937,0.7488067453602572
1.51,0.14105552356496193,0.8205646690276641
1.52,0.14926117025523858,0.8904902400313537
1.53,0.1581660726555521,0.9584488745292024
1.54,0.16775056140084413,1.0243103067244648
1.55,0.17799366446808879,1.0879488369939732
1.56,0.18887315283802852,1.14924357017608
1.57,0.20036558853978934,1.2080786435700088
1.58,0.21244637497548943,1.2643434442201367
1.59,0.2250898094176908,1.3179328150813747
1.6,0.23826913756850454,1.3687472496852024
1.61,0.2519566100653566,1.4166930749499964
1.62,0.26612354081485656,1.4616826218040142
1.6300000000000001,0.28074036703289673,1.503634383314719
1.6400000000000001,0.2957767108660439,1.5424731600439854
1.6500000000000001,0.31120144246648374,1.5781301923750717
1.6600000000000001,0.32698274439023445,1.6105432795840255
1.67,0.3430881771860747,1.6396568854553417
1.68,0.35948474604062813,1.665422230269172
1.69,0.37613896834331983,1.687797369015133
1.7,0.39301694203347115,1.7067472557157126
1.71,0.4100844145906283,1.722243793770382
1.72,0.4273068525283321,1.7342658722597382
1.73,0.4446495112509295,1.742799388177236
1.74,0.46207750513270185,1.7478372545843117
1.75,0.47955587767854496,1.749379394712854
1.76,0.4970496716256735,1.7474327220670098
1.77,0.5145239988463436,1.7420111066041637
1.78,0.5319441099123853,1.73313532710253
1.79,0.5492754631834106,1.7208330098501188
1.8,0.5664837932819118,1.7051385538167954
1.81,0.5835351788200798,1.6860930424977263
1.82,0.600396109245057,1.663744142642612
1.83,0.6170335506714831,1.6381459901107192
1.84,0.6334150105725903,1.6093590631167816
1.85,0.6495086012037581,1.5774500431572962
1.86,0.665283101635331,1.542491663930541
1.87,0.6807080182746365,1.5045625485867593
1.8800000000000001,0.6957536437605041,1.4637470356673237
1.8900000000000001,0.7103911141171774,1.4201349941132864
1.9000000000000001,0.7245924640583102,1.3738216277444895
1.9100000000000001,0.7383306803357551,1.3249072696303164
1.92,0.7515797530320583,1.2734971667921757
1.93,0.76431472469998,1.2197012556958802
1.94,0.7765117372569388,1.1636339290091902
1.95,0.7881480765470307,1.1054137941158986
1.96,0.7992022144881896,1.045163423892912
1.97,0.8096538487271188,0.9830091002708027
1.98,0.8194839397298268,0.9190805511112538
1.99,0.8286747452409393,0.8535106809466486
2.0,0.8372098520504058,0.7864352961377772
2.0100000000000002,0.8450742050117835,0.7179928250151995
2.02,0.8522541332619356,0.6483240335782187
2.0300000000000002,0.8587373735977177,0.5775717373326611
2.04,0.8645130909710443,0.5058805098547141
2.05,0.8695718960695915,0.43339638867294433
2.06,0.873905859956321,0.36026657906428405
2.07,0.8775085257469638,0.2866391563622424
2.08,0.8803749173105863,0.21266276737686146
2.09,0.8825015449843548,0.13848633152599826
2.1,0.8838864082996148,0.0642587422763761
2.11,0.8845289957223786,-0.009871430509482346
2.12,0.8844302814172839,-0.08375623672784449
2.13,0.8835927190500054,-0.15724864010197553
2.14,0.8820202326489857,-0.23020280958191364
2.15,0.8797182045531665,-0.30247440750076227
2.16,0.8766934604781589,-0.3739208739205803
2.17,0.872954251738953,-0.4444017066101912
2.18,0.8685102346728512,-0.5137787361075615
2.19,0.8633724473117755,-0.5819163953307954
2.2,0.8575532833584676,-0.6486819832142228
2.21,0.8510664635263253,-0.7139459218595055
2.22,0.8439270043077303,-0.777582006706112
2.23,0.8361511842406691,-0.8394676492408871
2.24,0.8277565077482603,-0.8994841117827349
2.25,0.8187616666304329,-0.9575167338956085
2.2600000000000002,0.8091864992914768,-1.013455150001018
2.27,0.7990519477914666,-1.0671934977800894
2.2800000000000002,0.7883800128136657,-1.1186306169748015
2.29,0.7771937066439176,-1.1676702382183386
2.3000000000000003,0.7655170042617342,-1.2142211615454945
2.31,0.7533747926462793,-1.2581974242556972
2.32,0.7407928184037222,-1.2995184578234522
2.33,0.7277976338254877,-1.3381092335737723
2.34,0.71441654148975,-1.373900396863441
2.35,0.7006775375211156,-1.4068283895326754
2.36,0.6866092536257888,-1.4368355604158873
2.37,0.67224089802163,-1.4638702637247194
2.38,0.6576021953843828,-1.4878869451413201
2.39,0.6427233259329697,-1.5088462154848592
2.4,0.627634863778121,-1.526714911839524
2.41,0.6123677146597258,-1.5414661460576315
2.42,0.5969530531991495,-1.55307934057698
2.43,0.5814222597933797,-1.5615402515171062
2.44,0.5658068572782087,-1.5668409790446518
2.45,0.5501384474877622,-1.5689799650235294
2.46,0.5344486478375269,-1.567961977990953
2.47,0.5187690280576174,-1.563798085525632
2.48,0.503131047202361,-1.556505614099441
2.49,0.4875659910613666,-1.5461080965286516
2.5,0.4721049100960801,-1.532635207165267
2.5100000000000002,0.4567785580244274,-1.5161226849931244
2.52,0.44161733117449614,-1.4966122448171368
2.5300000000000002,0.4266512087263248,-1.4741514767573158
2.54,0.4119096939587516,-1.448793734282004
2.5500000000000003,0.39742175661593154,-1.4205980110369851
2.56,0.3832157765055617,-1.3896288067488123
2.57,0.3693194884380736,-1.3559559825017486
2.58,0.3557599286130561,-1.319654605708099
2.59,0.3425633825559751,-1.280804785111415
2.6,0.32975533470486096,-1.23949149618101
2.61,0.31736041974305085,-1.195804397274406
2.62,0.30540237577030677,-1.1498376369617256
2.63,0.2939039994006895,-1.1016896529225815
2.64,0.2828871028714637,-1.051462962841693
2.65,0.27237247324304675,-0.999263947744244
2.66,0.2623798337656043,-0.9452026282258497
2.67,0.2529278074833458,-0.8893924340449043
2.68,0.24403388314289676,-0.8319499675570214
2.69,0.23571438346732654,-0.7729947614822162
2.7,0.22798443585250439,-0.7126490315054081
2.71,0.2208579455374503,-0.6510374242197234
2.72,0.21434757129525306,-0.5882867609299314
2.73,0.20846470368595374,-0.5245257778401451
2.74,0.20321944590755228,-0.45988486315565114
2.75,0.19862059727599576,-0.3944957916333848
2.7600000000000002,0.19467563935966192,-0.3284914571191422
2.77,0.1913907247884705,-0.2620056036121061
2.7800000000000002,0.18877066875234944,-0.195172555398661
2.79,0.1868189431983628,-0.12812694679778394
2.8000000000000003,0.18553767373038496,-0.06100345205952351
2.81,0.18492763920978972,0.00606348404377674
2.82,0.1849882740502275,0.07293991439678167
2.83,0.18571767319419533,0.1394926559582606
2.84,0.18711259975377792,0.20558955388828914
2.85,0.1891684952926608,0.2710997428639579
2.86,0.1918794927213004,0.33589390506910355
2.87,0.19523843177199143,0.39984452435169937
2.88,0.19923687701550843,0.46282613605165435
2.89,0.203865138376025,0.5247155720118497
2.9,0.2091122940961435,0.5853922002962663
2.91,0.21496621609910616,0.6447381591510024
2.92,0.2214135976906162,0.7026385847568215
2.93,0.2284399835381844,0.7589818323355741
2.94,0.23602980186154013,0.8136596901873804
2.95,0.24416639876341392,0.8665675862508043
2.96,0.25283207462592194,0.917604786794371
2.97,0.2620081224938656,0.9666745868646287
2.98,0.2716748683625119,1.0136844921335166
2.99,0.2818117132838471,1.0585463918060167
3.0,0.2923971772019072,1.1011767222679152
3.0100000000000002,0.3034089444245864,1.1414966211729305
3.02,0.3148239106363157,1.179432071688441
3.0300000000000002,0.3266182313532001,1.2149140366395303
3.04,0.3387673717195954,1.2478785823120093
3.0500000000000003,0.35124615754271554,1.2782669916964389
3.06,0.3640288274596799,1.306025866976911
3.0700000000000003,0.377089086129449,1.331107221090419
3.08,0.39040015834035324,1.353468558204994
3.09,0.4039348439224032,1.3730729429873816
3.1,0.417665573352277,1.3898890585538175
3.11,0.43156446393781517,1.4038912530203926
3.12,0.4456033764680191,1.4150595745925372
3.13,0.4597539722139445,1.423379795156239
3.14,0.47398777016550686,1.4288434223567152
3.15,0.48827620438907404,1.431447700173312
3.16,0.5025906813908072,1.4311955980223894
3.17,0.5169026373710311,1.4280957884427958
3.18,0.5311835952554591,1.422162613441209
3.19,0.5454052213898712,1.4134160395970776
3.2,0.5595393817858421,1.4018816020490854
3.21,0.5735581978063329,1.387590337506949
3.22,0.5874341011814024,1.3705787064538864
3.23,0.6011398882459412,1.3508885047262422
3.24,0.6146487732932037,1.3285667646774577
3.25,0.6279344409399782,1.3036656461538123
3.2600000000000002,0.6409710974015164,1.276242317529084
3.27,0.6537335205768072,1.2463588270644443
3.2800000000000002,0.6661971088474516,1.2140819648784935
3.29,0.6783379284962365,1.1794831158302959
3.3000000000000003,0.6901327596545395,1.1426381036355844
3.31,0.7015591406908953,1.1036270265529156
3.3200000000000003,0.7125954109564244,1.0625340849924496
3.33,0.7232207518063489,1.0194474014151733
3.34,0.7334152258205007,0.974458832904748
3.35,0.7431598141495481,0.9276637768077214
3.36,0.7524364519176253,0.8791609698505742
3.37,0.7612280616161311,0.8290522811539437
3.38,0.7695185844276705,0.7774424995753699
3.39,0.7772930094234242,0.7244391158220171
3.4,0.7845374005816443,0.6701520997840166
3.41,0.7912389215794845,0.6146936735473457
3.42,0.797385858314958,0.558178080552486
3.43,0.8029676391204829,0.500721351371473
3.44,0.8079748526341975,0.44244106658136473
3.45,0.8123992633000112,0.3834561172165903
3.46,0.8162338244721771,0.3238864632861046
3.47,0.8194726891050381,0.2638528908437529
3.48,0.8221112180134756,0.20347676810174586
3.49,0.8241459856944932,0.14287980107765696
3.5,0.8255747837052697,0.08218378926488555
3.5100000000000002,0.8263966215979186,0.021510381815078944
3.52,0.8266117254160694,-0.03901916528141316
3.5300000000000002,0.8262215337632552,-0.09928423053436461
3.54,0.8252286914579116,-0.15916506633343383
3.5500000000000003,0.8236370407945772,-0.21854303589579982
3.56,0.8214516104356192,-0.27730084731482935
3.5700000000000003,0.8186786019624709,-0.33532278425006434
3.58,0.8153253741199702,-0.39249493280684844
3.59,0.8114004247919017,-0.44870540416282384
3.6,0.8069133707502735,-0.5038445525082998
3.61,0.8018749252251904,-0.5578051878781038
3.62,0.7962968733464094,-0.6104827834639485
3.63,0.7901920455117699,-0.6617756770085613
3.64,0.7835742887416843,-0.7115852658957976
3.65,0.7764584360827264,-0.7598161955646654
3.66,0.7688602741270797,-0.8063765408896075
3.67,0.7607965087181836,-0.8511779801844712
3.68,0.7522847289163389,-0.8941359615033254
3.69,0.7433433693013056,-0.9351698609276261
3.7,0.7339916706920293,-0.974203132546139
3.71,0.7242496393665679,-1.0111634498514834
3.72,0.7141380048680531,-1.0459828382951113
3.73,0.703678176485102,-1.0785977987609543
3.74,0.6928921984974925,-1.1089494217368194
3.75,0.6818027042801243,-1.1369834919818413
3.7600000000000002,0.6704328693603059,-1.1626505835078842
3.77,0.658806363525227,-1.1859061447126753
3.7800000000000002,0.6469473020781003,-1.2067105735226054
3.79,0.6348801963428742,-1.2250292824235187
3.8000000000000003,0.622629903518639,-1.2408327532783798
3.81,0.6102215759858552,-1.254096581851418
3.8200000000000003,0.5976806101673411,-1.264801511979162
3.83,0.5850325950475495,-1.272933459349649
3.84,0.572303260454053,-1.2784835248719866
3.85,0.5595184252053331,-1.2814479976393058
3.86,0.5467039452289401,-1.2818283475089502
3.87,0.5338856617538505,-1.2796312073444343
3.88,0.5210893496804062,-1.2748683449842522
3.89,0.5083406662305637,-1.267556625022973
3.9,0.495665099980334,-1.2577179605101865
3.91,0.4830879203752321,-1.2453792546927172
3.92,0.47063412782830494,-1.2305723329450855
3.93,0.4583284044988541,-1.2133338650523857
3.94,0.44619506584833024,-1.193705278028585
3.95,0.4342580130680444,-1.1717326596716424
3.96,0.422540686471328,-1.1474666530747932
3.97,0.41106601994058006,-1.1209623423308064
3.98,0.399856396517272,-1.0922791296829482
3.99,0.3889336052204425,-1.06148060439277
4.0,0.3783187991765148,-1.0286344036106232
4.01,0.36803245514040855,-0.9938120655499784
4.0200000000000005,0.3580943344849088,-0.9570888752811595
4.03,0.3485234457320972,-0.9185437034739503
4.04,0.3393380086973577,-0.8782588384316954
4.05,0.33055542031304075,-0.8363198117719474
4.0600000000000005,0.3221922221953213,-0.7928152181204035
4.07,0.31426407001411727,-0.7478365291957948
4.08,0.3067857047221593,-0.7014779026735288
4.09,0.299770925695424,-0.6538359862252148
4.1,0.29323256583317187,-0.6050097171397147
4.11,0.2871824686617747,-0.5551001179390351
4.12,0.2816314674823844,-0.504210088409202
4.13,0.27658936659829236,-0.45244419447222944
4.14,0.2720649246535701,-0.39990845433038813
4.15,0.2680658401102662,-0.3467101223182018
4.16,0.2645987388870842,-0.29295747090093877
4.17,0.2616691641780748,-0.23875957126081448
4.18,0.2592815684654666,-0.18422607291368592
4.19,0.2574393077363298,-0.12946698279968838
4.2,0.2561446379083329,-0.07459244429105008
4.21,0.2553987134654224,-0.01971251655921706
4.22,0.25520158829983025,0.03506304525856189
4.23,0.25555221875241585,0.08962500865589798
4.24,0.2564484688389748,0.1438648806836052
4.25,0.25788711764581085,0.1976751227767346
4.26,0.2598638688735782,0.25094936305873705
4.2700000000000005,0.2623733625041656,0.3035826057054476
4.28,0.2654091885612201,0.35547143695865696
4.29,0.26896390293080663,0.4065142273869097
4.3,0.27302904520467575,0.45661132999982174
4.3100000000000005,0.277595158504674,0.5056652738316297
4.32,0.28265181124299027,0.5535809526198409
4.33,0.2881876207691887,0.6002658082157328
4.34,0.294190278851346,0.6456300083750242
4.3500000000000005,0.3006465789350963,0.6895866185892797
4.36,0.30754244512098905,0.7320517676315038
4.37,0.3148629627973041,0.7729448065028748
4.38,0.3225924108623328,0.8121884604816676
4.39,0.3307142954671495,0.8497089739900565
4.4,0.33921138520705,0.8854362480096671
4.41,0.3480657476871467,0.9193039697924138
