time,position,velocity
0.0,0.0,0.0
0.001,0.0,5.4
0.002,0.0054,5.3973
0.003,0.010797300000000001,5.394547350000001
0.004,0.016191847350000003,5.391742103325001
0.005,0.021583589453325003,5.388884313799839
0.006,0.02697247376712484,5.385974035748405
0.007,0.032358447802873246,5.38301132399286
0.008,0.037741459126866106,5.379996233852835
0.009000000000000001,0.043121455360718944,5.37692882114464
0.01,0.048498384181863585,5.37380914218046
0.011,0.05387219332404405,5.508745979185488
0.012,0.05938093930322953,5.505452884262654
0.013000000000000001,0.06488639218749219,5.502106348427491
0.014,0.07038849853591968,5.498706431331402
0.015,0.07588720496725108,5.495253193130377
0.016,0.08138245816038146,5.4917466944841395
0.017,0.0868742048548656,5.488186996555294
0.018000000000000002,0.0923623918514209,5.484574161008468
0.019,0.09784696601242936,5.48090825000945
0.02,0.1033278742624388,5.4771893262243205
0.021,0.10880506358866313,5.557938852710732
0.022,0.11436300244137386,5.55407183264849
0.023,0.11991707427402234,5.550151166707752
0.024,0.1254672254407301,5.546176920381658
0.025,0.13101340236111175,5.54214915966706
0.026000000000000002,0.1365555515207788,5.538067951063615
0.027,0.14209361947184243,5.533933361572876
0.028,0.1476275528334153,5.529745458697371
0.029,0.15315729829211266,5.525504310439688
0.03,0.15868280260255235,5.521209985301547
0.031,0.1642040125878539,5.576614789541281
0.032,0.16978062737739516,5.572184442020633
0.033,0.17535281181941578,5.567700543525849
0.034,0.18092051236294163,5.563163165135892
0.035,0.1864836755280775,5.5585723784296945
0.036000000000000004,0.1920422479065072,5.553928255485199
0.037,0.1975961761619924,5.549230868878391
0.038,0.2031454070308708,5.544480291682332
0.039,0.20868988732255314,5.5396765974661815
0.04,0.21422956392001932,5.534819860294223
0.041,0.21976438378031354,5.566484522569533
0.042,0.22533086830288307,5.561503636470445
0.043000000000000003,0.23089237193935352,5.556469575969182
0.044,0.2364488415153227,5.551382417461803
0.045,0.2420002239327845,5.5462422378379195
0.046,0.24754646617062243,5.541049114479673
0.047,0.2530875152851021,5.535803125260727
0.048,0.25862331841036285,5.530504348545246
0.049,0.2641538227589081,5.52515286318687
0.05,0.269678975622095,5.519748748527688
0.051000000000000004,0.27519872437062265,5.529173435637987
0.052000000000000005,0.2807278978062606,5.523656861676462
0.053,0.28625155466793706,5.518087754267561
0.054,0.2917696424222046,5.512466194843747
0.055,0.29728210861704835,5.506792265322103
0.056,0.3027889008823704,5.501066048103271
0.057,0.3082899669304737,5.495287626070396
0.058,0.3137852545565441,5.489457082588056
0.059000000000000004,0.3192747116391322,5.483574501501197
0.06,0.3247582861406334,5.477639967134055
0.061,0.3302359261077675,5.471653564289082
0.062,0.33570757967205656,5.4307362553743905
0.063,0.34113831592743094,5.4246638114499826
0.064,0.3465629797388809,5.418540096384984
0.065,0.3519815198352659,5.412365196539402
0.066,0.3573938850318053,5.40613919874278
0.067,0.3628000242305481,5.39986219029309
0.068,0.36819988642084117,5.393534258955638
0.069,0.3735934206797968,5.387155492961952
0.07,0.3789805761727587,5.380725981008673
0.07100000000000001,0.3843613021537674,5.3789303314623815
0.07200000000000001,0.38974023248522977,5.372397253275112
0.073,0.39511262973850486,5.365813652323623
0.074,0.4004784433908285,5.359179619200076
0.075,0.40583762301002857,5.352495244956568
0.076,0.41119011825498514,5.34576062110399
0.077,0.4165358788760891,5.338975839610888
0.078,0.4218748547157,5.332140992902322
0.079,0.4272069957086023,5.325256173858714
0.08,0.432532251882461,5.318321475814698
0.081,0.4378505733582757,5.27056571325647
0.082,0.44312113907153217,5.26355192466626
0.083,0.44838469099619843,5.256488937313211
0.084,0.45364117993351166,5.249376845934592
0.085,0.45889055677944623,5.24221574571229
0.08600000000000001,0.4641327725251585,5.235005732271639
0.08700000000000001,0.46936777825743015,5.227746901680252
0.088,0.4745955251591104,5.220439350446838
0.089,0.47981596450955727,5.213083175520023
0.09,0.48502904768507726,5.205678474287167
0.091,0.4902347261593644,5.14172974648606
0.092,0.4953764559058505,5.134256534351223
0.093,0.5005107124402017,5.12673564152499
0.094,0.5056374480817267,5.1191671665798255
0.095,0.5107566152483065,5.111551208515718
0.096,0.5158681664568222,5.103887866758977
0.097,0.5209720543235812,5.096177241161029
0.098,0.5260682315647423,5.088419431997212
0.099,0.5311566509967395,5.080614539965566
0.1,0.536237265536705,5.072762666185616
0.101,0.5413100282028906,4.994327916724335
0.10200000000000001,0.546304356119615,4.986417652483944
0.10300000000000001,0.551290773772099,4.9784614000965055
0.10400000000000001,0.5562692351721955,4.970459261658736
0.105,0.5612396944338542,4.962411339676185
0.106,0.5662021057735305,4.954317737062008
0.107,0.5711564235105925,4.946178557135742
0.108,0.5761026020677282,4.937993903622068
0.109,0.5810405959713503,4.92976388064958
0.11,0.5859703598519999,4.921488592749542
0.111,0.5908918484447494,4.830114529337373
0.112,0.5957219629740867,4.821790553588257
0.113,0.600543753527675,4.813422438681722
0.114,0.6053571759663567,4.805010289927105
0.115,0.6101621862562838,4.796554213022477
0.116,0.6149587404693063,4.7880543140534035
0.117,0.6197467947833597,4.779510699491683
0.11800000000000001,0.6245263054828514,4.770923476194104
0.11900000000000001,0.6292972289590455,4.762292751401179
0.12,0.6340595217104467,4.753618632735888
0.121,0.6388131403431826,4.650831610226003
0.122,0.6434639719534087,4.642118063017459
0.123,0.6481060900164262,4.633362364266416
0.124,0.6527394523806925,4.624564622184119
0.125,0.6573640170028766,4.6157249453492195
0.126,0.6619797419482258,4.606843442706516
0.127,0.6665865853909324,4.597920223565681
0.128,0.671184505614498,4.588955397599989
0.129,0.675773461012098,4.579949074845044
0.13,0.6803534100869431,4.570901365697501
0.131,0.6849243114526405,4.458201574996523
0.132,0.6893825130276371,4.449123231094498
0.133,0.6938316362587316,4.440004844348675
0.134,0.6982716411030803,4.430846525563913
0.135,0.7027024876286442,4.421648385890101
0.136,0.7071241360145343,4.412410536820869
0.137,0.7115365465513551,4.403133090192314
0.138,0.7159396796415475,4.3938161581817035
0.139,0.7203334957997292,4.384459853306197
0.14,0.7247179556530353,4.375064288421546
0.14100000000000001,0.7290930199414568,4.2539196666291295
0.14200000000000002,0.733346939608086,4.2445017765964
0.14300000000000002,0.7375914413846824,4.235046056312021
0.14400000000000002,0.7418264874409943,4.225552618870019
0.145,0.7460520400598644,4.216021577686174
0.146,0.7502680616375506,4.2064530464967325
0.147,0.7544745146840472,4.196847139357109
0.148,0.7586713618234043,4.18720397064059
0.149,0.7628585657940449,4.177523655037036
0.15,0.7670360894490819,4.167806307551577
0.151,0.7712038957566334,4.039646938743445
0.152,0.7752435426953769,4.029915076316507
0.153,0.7792734577716934,4.020147683351395
0.154,0.7832936054550448,4.010344874932002
0.155,0.7873039503299768,4.000506766439986
0.156,0.7913044570964168,3.990633473553466
0.157,0.7952950905699703,3.9807251122457252
0.158,0.799275815682216,3.9707817987839027
0.159,0.8032465974809998,3.9608036497276884
0.16,0.8072074011307275,3.9507907819280144
0.161,0.8111581919126556,3.817003793665224
0.162,0.8149751957063208,3.806983709849265
0.163,0.81878217941617,3.796930466037277
0.164,0.8225791098822073,3.7868441790100964
0.165,0.8263659540612174,3.7767249658217694
0.166,0.8301426790270392,3.7665729437982463
0.167,0.8339092519708374,3.7563882305360767
0.168,0.8376656402013735,3.7461709439011
0.169,0.8414118111452745,3.7359212020271357
0.17,0.8451477323473017,3.7256391233146693
0.171,0.8488733714706164,3.5875640774077477
0.17200000000000001,0.8524609355480242,3.577281561654338
0.17300000000000001,0.8560382171096785,3.5669683115180306
0.17400000000000002,0.8596051854211966,3.556624445191175
0.17500000000000002,0.8631618098663878,3.5462500811143673
0.176,0.8667080599475022,3.535845337975146
0.177,0.8702439052854773,3.5254103347066836
0.178,0.873769315620184,3.5149451904864755
0.179,0.8772842608106705,3.5044500247350303
0.18,0.8807887108354054,3.4939249571145563
0.181,0.88428263579252,3.483370107527645
0.182,0.8877660059000476,3.3233980245728563
0.183,0.8910894039246204,3.3128586655015693
0.184,0.894402262590122,3.302291342129572
0.185,0.8977045539322516,3.291696173832606
0.186,0.9009962501060842,3.281073280206367
0.187,0.9042773233862905,3.270422781065203
0.188,0.9075477461673557,3.2597447964408075
0.189,0.9108074909637964,3.2490394465809134
0.19,0.9140565304103774,3.2383068519479847
0.191,0.9172948372623254,3.227547133217907
0.192,0.9205223843955433,3.0847814690247173
0.193,0.923607165864568,3.0740338544462493
0.194,0.9266811997190143,3.0632607658603805
0.195,0.9297444604848747,3.05246232348026
0.196,0.9327969228083549,3.0416386477136714
0.197,0.9358385614560686,3.030789859161731
0.198,0.9388693513152303,3.0199160786175896
0.199,0.9418892673938479,3.0090174270651286
0.2,0.9448982848209131,2.998094025677658
0.201,0.9478963788465907,2.98714599581661
0.202,0.9508835248424073,2.844007199570273
0.203,0.9537275320419776,2.833076360722064
0.20400000000000001,0.9565606084026996,2.822122547221283
0.20500000000000002,0.9593827309499209,2.8111458798636457
0.20600000000000002,0.9621938768297845,2.800146479614215
0.20700000000000002,0.9649940233093988,2.78912446760611
0.20800000000000002,0.9677831477770049,2.778079965139213
0.209,0.9705612277421442,2.7670130936788735
0.21,0.973328240835823,2.7559239748546127
0.211,0.9760841648106776,2.7448127304588272
0.212,0.9788289775411364,2.6023068867007857
0.213,0.9814312844278372,2.591217443482024
0.214,0.9840225018713192,2.5801075219160046
0.215,0.9866026093932352,2.5689772431363336
0.216,0.9891715866363715,2.557826728420833
0.217,0.9917294133647924,2.5466560991902587
0.218,0.9942760694639826,2.5354654770070155
0.219,0.9968115349409896,2.524254983573872
0.22,0.9993357899245635,2.5130247407326753
0.221,1.0018488146652962,2.5017748704630636
0.222,1.0043505895357592,2.360942719741968
0.223,1.0067115322555011,2.3497187424867394
0.224,1.009061250997988,2.3384767677929412
0.225,1.011399727765781,2.327216916899065
0.226,1.01372694468268,2.315939311162958
0.227,1.016042883993843,2.3046440720605497
0.228,1.0183475280659036,2.293331321184581
0.229,1.0206408593870882,2.2820011802433298
0.23,1.0229228605673315,2.270653771059337
0.231,1.0251935143383908,2.259289215568134
0.232,1.027452803553959,2.1211067317161367
0.233,1.0295739102856751,2.1097716503147392
0.234,1.0316836819359898,2.0984210253867253
0.23500000000000001,1.0337821029613765,2.087054978054672
0.23600000000000002,1.0358691579394312,2.075673629536031
0.23700000000000002,1.0379448315689672,2.064277101141869
0.23800000000000002,1.040009108670109,2.052865514275608
0.23900000000000002,1.0420619741843846,2.0414389904317694
0.24,1.0441034131748164,2.0299976511947095
0.241,1.046133410826011,2.018541618237364
0.242,1.0481519524442484,1.8839181665514797
0.243,1.0500358706108,1.8724946879437614
0.244,1.0519083652987438,1.8610580818936815
0.245,1.0537694233806374,1.8496084691997472
0.246,1.055619031849837,1.838145970731341
0.247,1.0574571778205684,1.826670707427477
0.248,1.0592838485279958,1.8151828002955577
0.249,1.0610990313282913,1.80368237041013
0.25,1.0629027136987015,1.7921695389116419
0.251,1.064694883237613,1.780644427005199
0.252,1.0664755276646183,1.6504218406062645
0.253,1.0681259495052247,1.638931874409315
0.254,1.0697648813796339,1.627431148977058
0.255,1.071392312528611,1.6159197845887732
0.256,1.0730082323131998,1.6043979015711927
0.257,1.074612630214771,1.592865620297275
0.258,1.0762054958350682,1.5813230611849787
0.259,1.0777868188962532,1.5697703446960356
0.26,1.0793565892409491,1.558207591334725
0.261,1.0809147968322839,1.5466349216466482
0.262,1.0824614317539305,1.4215869695112344
0.263,1.0838830187234418,1.4100515617089395
0.264,1.0852930702851509,1.3985077057408506
0.265,1.0866915779908917,1.3869555211851285
0.266,1.0880785335120768,1.375395127644627
0.267,1.0894539286397216,1.363826644745684
0.268,1.0908177552844673,1.3522501921369139
0.269,1.0921700054766041,1.3406658894880008
0.27,1.093510671366092,1.3290738564884907
0.271,1.0948397452225804,1.3174742128465855
0.272,1.096157219435427,1.1983064382474213
0.273,1.0973555258736745,1.1867457128339434
0.274,1.0985422715865083,1.1751787847187896
0.275,1.099717450371227,1.163605772610565
0.276,1.1008810561438376,1.1520267952205476
0.277,1.102033082939058,1.140441971261499
0.278,1.1031735249103196,1.1288514194464778
0.279,1.1043023763297661,1.1172552584876514
0.28,1.1054196315882538,1.10565360709511
0.281,1.1065252851953489,1.0940465839756799
0.28200000000000003,1.1076193317793246,0.9813964938897568
0.28300000000000003,1.1086007282732144,0.9698296023250187
0.28400000000000003,1.1095705578755395,0.958258680241124
0.28500000000000003,1.1105288165557805,0.946683845322248
0.28600000000000003,1.1114755004011028,0.9351052152340291
0.28700000000000003,1.1124106056163368,0.9235229076224011
0.28800000000000003,1.113334128523959,0.9119370401124265
0.289,1.1142460655640716,0.9003477303071307
0.29,1.1151464132943787,0.8887550957863364
0.291,1.116035168390165,0.8771592541054994
0.292,1.1169123276442705,0.7715968394643982
0.293,1.1176839244837349,0.7600419177682233
0.294,1.1184439664015031,0.7484850575645018
0.295,1.1191924514590676,0.7369263753717045
0.296,1.1199293778344392,0.725365987669428
0.297,1.1206547438221086,0.7138040108972489
0.298,1.1213685478330058,0.7022405614535792
0.299,1.1220707883944594,0.6906757556945223
0.3,1.122761464150154,0.6791097099327305
0.301,1.1234405738600868,0.6675425404362626
0.302,1.124108116400523,0.5695711065338002
0.303,1.124677687507057,0.558045239816528
0.304,1.1252357327468736,0.5465194403215492
0.305,1.1257822521871952,0.5349938232739196
0.306,1.1263172460104691,0.5234685038404108
0.307,1.1268407145143096,0.5119435971283859
0.308,1.127352658111438,0.5004192181846786
0.309,1.1278530773296227,0.48889548199447186
0.31,1.128341972811617,0.4773725034801784
0.311,1.1288193453150972,0.46585039750032214
0.312,1.1292851957125976,0.37590768344733
0.313,1.1296611033960449,0.36442687764848036
0.314,1.1300255302736932,0.35294805317569566
0.315,1.1303784783268689,0.3414713238463709
0.316,1.1307199496507152,0.32999680340117904
0.317,1.1310499464541164,0.3185246055029713
0.318,1.1313684710596195,0.30705484373567865
0.319,1.131675525903355,0.2955876316032146
0.32,1.1319711135349584,0.2841230825283794
0.321,1.1322552366174867,0.2726613098517657
0.322,1.1325278979273385,0.1911208756717226
0.323,1.1327190188030103,0.17970003625461334
0.324,1.132898718839265,0.16828299604845592
0.325,1.1330670018353135,0.15686986736203903
0.326,1.1332238717026755,0.14546076241000488
0.327,1.1333693324650855,0.13405579331177314
0.328,1.1335033882583974,0.1226550720904664
0.329,1.1336260433304879,0.1112587106718372
0.33,1.1337373020411596,0.0998668208831964
0.331,1.1338371688620428,0.0884795144523432
0.332,1.133925648376495,0.015652374238899244
0.333,1.133941300750734,0.004305291568014843
0.334,1.1339456060423019,-0.007036274085276505
0.335,1.1339385697682165,-0.018372212008656887
0.336,1.1339201975562079,-0.029702411600334724
0.337,1.1338904951446076,-0.041026762370096635
0.338,1.1338494683822375,-0.05234515394035766
0.339,1.1337971232282973,-0.06365747604720985
0.34,1.13373346575225,-0.07496361854146921
0.341,1.1336585021337084,-0.08626347138972097
0.342,1.1335722386623188,-0.15012699188717493
0.343,1.1334221116704317,-0.16138765077785452
0.34400000000000003,1.133260724019654,-0.17264117806916993
0.34500000000000003,1.1330880828415848,-0.18388746472033188
0.34600000000000003,1.1329041953768644,-0.19512640181638757
0.34700000000000003,1.132709068975048,-0.20635788056924803
0.34800000000000003,1.1325027110944788,-0.21758179231871388
0.34900000000000003,1.13228512930216,-0.22879802853349931
0.35000000000000003,1.1320563312736265,-0.24000648081225417
0.35100000000000003,1.1318163247928141,-0.2512070408845843
0.352,1.1315651177519295,-0.30591524382472424
0.353,1.1312592025081047,-0.3170779373803312
0.354,1.1309421245707245,-0.3282319904367221
0.355,1.1306138925802878,-0.339377295687211
0.356,1.1302745152846005,-0.35051374596517026
0.357,1.1299240015386354,-0.3616412342450337
0.358,1.1295623603043903,-0.37275965364329755
0.359,1.129189600650747,-0.3838688974195198
0.36,1.1288057317533273,-0.3949688589773175
0.361,1.12841076289435,-0.4060594318653621
0.362,1.1280047034624847,-0.45147700544379255
0.363,1.127553226457041,-0.46253131397569547
0.364,1.1270906951430653,-0.47357558058327803
0.365,1.126617119562482,-0.48460969974441703
0.366,1.1261325098627375,-0.4956335660901696
0.367,1.1256368762966473,-0.506647074405752
0.368,1.1251302292222416,-0.5176501196315155
0.369,1.12461257910261,-0.5286425968639222
0.37,1.124083936505746,-0.5396244013565163
0.371,1.1235443121043895,-0.5505954285208956
0.372,1.1229937166758686,-0.5866410448196323
0.373,1.122407075631049,-0.5975776614639812
0.374,1.121809497969585,-0.6085029433895597
0.375,1.1212009950261954,-0.6194167868975607
0.376,1.1205815782392978,-0.6303190884543739
0.377,1.1199512591508434,-0.6412097446925397
0.378,1.1193100494061508,-0.6520886524117018
0.379,1.118657960753739,-0.6629557085795574
0.38,1.1179950050451595,-0.6738108103328051
0.381,1.1173211942348267,-0.6846538549780903
0.382,1.1166365403798486,-0.7112976283390658
0.383,1.1159252427515096,-0.7221083449286948
0.384,1.115203134406581,-0.7329065431837456
0.385,1.1144702278633971,-0.7436921212562195
0.386,1.1137265357421409,-0.7544649774742254
0.387,1.1129720707646666,-0.7652250103429097
0.388,1.1122068457543237,-0.775972118545385
0.389,1.1114308736357783,-0.7867062009436555
0.39,1.1106441674348346,-0.7974271565795414
0.391,1.109846740278255,-0.8081348846756
0.392,1.1090386053935795,-0.8253957109644885
0.393,1.108213209682615,-0.8360733991629421
0.394,1.107377136283452,-0.8467374945601868
0.395,1.1065303987888917,-0.8573878971757412
0.396,1.1056730108917159,-0.8680245072150422
0.397,1.1048049863845009,-0.8786472250703519
0.398,1.1039263391594305,-0.8892559513216617
0.399,1.103037083208109,-0.8998505867375952
0.4,1.1021372326213712,-0.9104310322763075
0.401,1.101226801589095,-0.9209971890863831
0.402,1.1003058044000085,-0.9289399856975682
0.403,1.099376864414311,-0.9394785737487195
0.404,1.0984373858405623,-0.9500026031059882
0.405,1.0974873832374563,-0.9605119756628407
0.406,1.0965268712617935,-0.9710065935073839
0.40700000000000003,1.0955558646682861,-0.9814863589232482
0.40800000000000003,1.0945743783093629,-0.9919511743904694
0.40900000000000003,1.0935824271349723,-1.0024009425863678
0.41000000000000003,1.092580026192386,-1.0128355663864244
0.41100000000000003,1.0915671906259996,-1.023254948865155
0.41200000000000003,1.0905439356771345,-1.0219878147319057
0.41300000000000003,1.0895219478624025,-1.032382260181311
0.41400000000000003,1.0884895656022213,-1.0427612885298445
0.41500000000000004,1.0874468043136916,-1.0531248035416019
0.41600000000000004,1.0863936795101499,-1.0634727091829679
0.417,1.085330206800967,-1.0738049096234779
0.418,1.0842564018913434,-1.0841213092366757
0.419,1.0831722805821067,-1.0944218126009708
0.42,1.0820778587695057,-1.1047063245004913
0.421,1.0809731524450052,-1.1149747499259361
0.422,1.0798581776950793,-1.1046460641484535
0.423,1.078753531630931,-1.11489232289333
0.424,1.0776386393080375,-1.1251224120481926
0.425,1.0765135168959894,-1.135336237235249
0.426,1.0753781806587541,-1.145533704285591
0.427,1.0742326469544685,-1.1557147192400359
0.428,1.0730769322352285,-1.1658791883499606
0.429,1.0719110530468785,-1.176027018078138
0.43,1.0707350260288004,-1.1861581150995677
0.431,1.0695488679137009,-1.196272386302306
0.432,1.0683525955273985,-1.1770678632972502
0.433,1.0671755276641013,-1.1871628553208755
0.434,1.0659883648087805,-1.197241029169856
0.435,1.0647911237796106,-1.207302292303359
0.436,1.0635838214873072,-1.2173465523950033
0.437,1.0623664749349122,-1.227373717333679
0.438,1.0611391012175786,-1.2373836952243613
