time,position,velocity
0.0,0.0,0.0
0.01,0.0,0.1
0.02,0.001,0.1995
0.03,0.0029950000000000003,0.2983025
0.04,0.0059780250000000005,0.39621198750000003
0.05,0.009940144875000001,0.49303532256250004
0.06,0.014870498100625,0.5885821169746875
0.07,0.020756319270371876,0.6826651067696891
0.08,0.027582970338068766,0.7751005173817662
0.09,0.035333975511886426,0.8657084207272436
0.1,0.04399105971915886,0.9543130835212301
0.11,0.05353419055437116,1.0407433061597922
0.12,0.06394162361596908,1.124832751518119
0.13,0.07518995113115028,1.2064202630373344
0.14,0.08725415376152362,1.2853501714959177
0.15,0.1001076554764828,1.3614725898861333
0.16,0.11372238137534413,1.4346436958414062
0.17,0.1280688183337582,1.5047260010871304
0.18,0.1431160783446295,1.571588607414943
0.19,0.15883196441877892,1.6351074487089423
0.2,0.17518303890586834,1.6951655185816419
0.21,0.19213469409168477,1.75165308320756
0.22,0.20965122492376037,1.8044678789731854
0.23,0.22769590371349221,1.8535152945935673
0.24,0.24623105665942788,1.8987085373779011
0.25,0.26521814203320687,1.9399687833591261
0.26,0.2846178298667981,1.9772253110356892
0.27,0.30439008297715503,2.0104156185071513
0.28,0.3244942391622265,2.0394855238191845
0.29,0.3448890944004184,2.064389248367643
0.3,0.3655329868840948,2.085089483245721
0.31,0.386383881716552,2.1015574384526734
0.32,0.40739945610107875,2.1137728749170996
0.33,0.4285371848502497,2.121724119322298
0.34,0.4497544260434727,2.125408061755637
0.35000000000000003,0.47100850666102906,2.124830136238164
0.36,0.4922568080234107,2.1200042842247675
0.37,0.5134568508656584,2.1109529011989614
0.38,0.534566379877648,2.097706766519835
0.39,0.5555434475428463,2.0803049567117062
0.4,0.5763464971099634,2.0587947424195785
0.41000000000000003,0.5969344445341592,2.033231469285488
0.42,0.6172667592270141,2.0036784230322287
0.43,0.6373035434573364,1.9702066790716646
0.44,0.657005610248053,1.932894936984839
0.45,0.6763345596179015,1.8918293402503041
0.46,0.6952528530204045,1.8471032816254722
0.47000000000000003,0.7137238858366592,1.7988171946132638
0.48,0.7317120577827919,1.7470783314728657
0.49,0.7491828410975205,1.692000528258943
0.5,0.76610284638011,1.6337039573981442
0.51,0.7824398859540914,1.5723148683351316
0.52,0.7981630346374428,1.5079653168026377
0.53,0.8132426878054692,1.4407928832911359
0.54,0.8276506166383805,1.3709403813135863
0.55,0.8413600204515164,1.2985555560793423
0.56,0.8543455760123098,1.2237907742086422
0.5700000000000001,0.8665834837543962,1.146802705135137
0.58,0.8780515108057476,1.067751994858582
0.59,0.8887290307543334,0.9868029327231397
0.6,0.8985970600815648,0.9041231119086572
0.61,0.9076382912006514,0.819883084332801
0.62,0.9158371220439795,0.7342560106710068
0.63,0.9231796821506896,0.6474173062088558
0.64,0.9296538552127781,0.5595442832476737
0.65,0.9352492980452548,0.4708157907888797
0.66,0.9399574559531436,0.38141185222588436
0.67,0.9437715744754025,0.2915133017741262
0.68,0.9466867074931438,0.20130142037017507
0.6900000000000001,0.9486997216968455,0.11095757176969544
0.7000000000000001,0.9498092974145425,0.020662839571477867
0.71,0.9500159258102572,-0.06940233410928802
0.72,0.9493219024691643,-0.15905850760079304
0.73,0.9477313173931563,-0.24812759555662192
0.74,0.9452500414375901,-0.3364332210574701
0.75,0.9418857092270153,-0.42380106323970074
0.76,0.9376476985946183,-0.5100591997689053
0.77,0.9325471065969292,-0.5950384434889845
0.78,0.9265967221620394,-0.6785726725909255
0.79,0.9198109954361301,-0.7604991536603787
0.8,0.9122060038995263,-0.8406588569793028
0.81,0.9037994153297333,-0.9188967634743115
0.8200000000000001,0.8946104476949902,-0.9950621627228866
0.8300000000000001,0.8846598260677614,-1.0690089414482702
0.84,0.8739697366532787,-1.140595861954581
0.85,0.8625637780337329,-1.209686829975464
0.86,0.8504669097339782,-1.2761511514323332
0.87,0.8377053982196548,-1.339863777621967
0.88,0.8243067604434352,-1.4007055383777882
0.89,0.8102997050596573,-1.4585633627745862
0.9,0.7957140714319114,-1.5133304869726447
0.91,0.780580766562185,-1.5649066488241639
0.92,0.7649317000739434,-1.61319826889248
0.93,0.7487997173850186,-1.6581186175628062
0.9400000000000001,0.7322185312093905,-1.6995879679519958
0.9500000000000001,0.7152226515298705,-1.737533734354114
0.96,0.6978473141863294,-1.7718905959883176
0.97,0.6801284082264463,-1.8026006058456419
0.98,0.6621024021679899,-1.8296132844617028
0.99,0.6438062693233728,-1.8528856984729922
1.0,0.6252774123386429,-1.8723825238453018
1.01,0.6065535871001898,-1.888076093693804
1.02,0.5876728261632518,-1.8999464306453728
1.03,0.5686733618567981,-1.9079812637247964
1.04,0.5495935492195501,-1.912176029777532
1.05,0.5304717889217747,-1.9125338594725545
1.06,0.5113464503270492,-1.9090655479595466
1.07,0.4922557948474537,-1.9017895102851587
1.08,0.4732378997446021,-1.8907317217032238
1.09,0.45433058252756986,-1.8759256430436282
1.1,0.43557132609713356,-1.857412131333924
1.11,0.4169972047837943,-1.8352393358966812
1.12,0.3986448114248275,-1.8094625801739566
1.1300000000000001,0.38055018562308796,-1.7801442295580523
1.1400000000000001,0.36274874332750745,-1.7473535455348796
1.1500000000000001,0.34527520787215865,-1.7111665264727067
1.16,0.3281635426074316,-1.6716657354147748
1.17,0.31144688525328384,-1.6289401152591874
1.18,0.295157484100692,-1.5830847917335482
1.19,0.2793266361833565,-1.534200864595019
1.2,0.2639846275374063,-1.4823951875087151
1.21,0.24916067566231917,-1.4277801370786527
1.22,0.23488287429153265,-1.3704733715257233
1.23,0.2211781405762754,-1.3105975795264013
1.24,0.2080721647810114,-1.2482802197440244
1.25,0.19558936258357115,-1.1836532516015066
1.26,0.18375283006755608,-1.1168528578602133
1.27,0.17258430148895396,-1.0480191595844235
1.28,0.16210410989310972,-0.9772959240842921
1.29,0.1523311506522668,-0.9048302664424926
1.3,0.14328284798784185,-0.8307723452407335
1.31,0.13497512453543453,-0.7552750531120982
1.32,0.12742237400431355,-0.6784937027536246
1.33,0.12063743697677731,-0.6005857090407192
1.34,0.11463157988637013,-0.521710267890871
1.35,0.10941447720746142,-0.4420280325286907
1.36,0.10499419688217451,-0.36170078780753956
1.37,0.10137718900409912,-0.28089112324493676
1.3800000000000001,0.09856827777164975,-0.19976210542953188
1.3900000000000001,0.09657065671735443,-0.11847695045671418
1.4000000000000001,0.09538588721278729,-0.037198697047901505
1.41,0.09501390024230827,0.04391011899478056
1.42,0.09545300143225607,0.12468778835134502
1.43,0.09669987931576952,0.20497374912313707
1.44,0.0987496168070009,0.2846089045143675
1.45,0.10159570585214457,0.3634359366303955
1.46,0.10523006521844852,0.4412996157768146
1.47,0.10964306137621667,0.5180471046542409
1.48,0.11482353242275908,0.5935282568557263
1.49,0.12075881499131634,0.6675959090868958
1.5,0.1274347740821853,0.740106166543198
1.51,0.13483583574761726,0.810918680894045
1.52,0.14294502255655772,0.8798969203400513
1.53,0.15174399175995823,0.9469084312270395
1.54,0.16121307607222862,1.0118250907189126
1.55,0.17133132697941775,1.0745233500508724
1.56,0.18207656047992649,1.1348844679047345
1.57,0.19342540515897383,1.1927947334692255
1.58,0.2053533524936661,1.2481456787700846
1.59,0.21783480928136695,1.300834279877501
1.6,0.23084315208014194,1.3507631466218402
1.61,0.24435078354636033,1.3978407004727025
1.62,0.2583291905510874,1.4419813402610668
1.6300000000000001,0.27274900395369805,1.483105595449544
1.6400000000000001,0.2875800599081935,1.5211402666815568
1.6500000000000001,0.3027914625750091,1.5560185533665103
1.6600000000000001,0.3183516481086742,1.587680168084676
1.67,0.334228449789521,1.6160714376225178
1.68,0.35038916416574617,1.641145390476501
1.69,0.3668006180705112,1.6628618306909693
1.7,0.3834292363774209,1.6811873979234122
1.71,0.400241110356655,1.696095613658311
1.72,0.4172020664932381,1.7075669135186884
1.73,0.434277735628425,1.7155886656524473
1.74,0.45143362228494943,1.7201551751985
1.75,0.46863517403693444,1.7212676748655176
1.76,0.4858478507855896,1.718934301683803
1.77,0.5030371938024276,1.713170060018266
1.78,0.5201688944026103,1.703996770957689
1.79,0.5372088621121872,1.6914430082223786
1.8,0.554123292194411,1.6755440207588292
1.81,0.5708787324019994,1.656341642216153
1.82,0.5874421488241609,1.6338841875246723
1.83,0.6037809906994076,1.6082263368222167
1.84,0.6198632540676298,1.5794290069982242
1.85,0.635657544137612,1.5475592111497072
1.86,0.6511331362491091,1.5126899062664363
1.87,0.6662600353117735,1.4748998294852822
1.8800000000000001,0.6810090336066263,1.4342733232755012
1.8900000000000001,0.6953517668393814,1.3909001499377984
1.9000000000000001,0.7092607683387594,1.3448752958202332
1.9100000000000001,0.7227095212969618,1.2962987656733802
1.92,0.7356725089536955,1.245275367585621
1.93,0.7481252626295517,1.1919144889569537
1.94,0.7600444075191213,1.1363298639862587
1.95,0.7714077061589839,1.078639333162503
1.96,0.7821940994906089,1.0189645952648938
1.97,0.7923837454432578,0.9574309523904475
1.98,0.8019580549671623,0.8941670485398437
1.99,0.8108997254525607,0.8293046023037121
2.0,0.8191927714755979,0.7629781342016814
2.0100000000000002,0.8268225528176147,0.6953246892355534
2.02,0.8337757997099703,0.6264835552258526
2.0300000000000002,0.8400406352622288,0.5565959775077294
2.04,0.8456065950373062,0.48580487056774496
2.05,0.8504646437429836,0.414254527207445
2.06,0.854607189015058,0.34209032582281107
2.07,0.8580280922732861,0.2694584363906854
2.08,0.860722676637193,0.19650552575407476
2.09,0.8626877318947338,0.12337846279786578
2.1,0.8639215165227124,0.050224024104929696
2.11,0.8644237567637617,-0.02281139932013744
2.12,0.8641956427705604,-0.0955820936762891
2.13,0.8632398218337974,-0.16794331176201974
2.14,0.8615603887161772,-0.23975155956996913
2.15,0.8591628731204776,-0.31086487951535474
2.16,0.856054224325324,-0.3811431297418735
2.17,0.8522427930279052,-0.45044825895822893
2.18,0.8477383104383229,-0.5186445762690188
2.19,0.8425518646756327,-0.5855990154753383
2.2,0.8366958745208793,-0.6511813933330882
2.21,0.8301840605875485,-0.7152646612705986
2.22,0.8230314139748425,-0.7777251500817554
2.23,0.8152541624740249,-0.838442807126315
2.24,0.8068697344027618,-0.8973014255854884
2.25,0.7978967201469069,-0.9541888653381133
2.2600000000000002,0.7883548314935258,-1.0089972650408041
2.27,0.7782648588431178,-1.0616232450143053
2.2800000000000002,0.7676486263929747,-1.1119681005578572
2.29,0.7565289453873961,-1.1599379853336629
2.3000000000000003,0.7449295655340595,-1.2054440844844738
2.31,0.7328751246892148,-1.2484027771688633
2.32,0.7203910969175261,-1.2887357882208619
2.33,0.7075037390353175,-1.3263703286632629
2.34,0.6942400357486849,-1.36123922482701
2.35,0.6806276435004148,-1.393281035852612
2.36,0.6666948331418887,-1.422440159373432
2.37,0.6524704315481544,-1.4486669252049424
2.38,0.637983762296105,-1.4719176768885487
2.39,0.6232645855272195,-1.492154840963327
2.4,0.6083430371175863,-1.5093469838639542
2.41,0.5932495672789467,-1.5234688563681515
2.42,0.5780148787152652,-1.5345014255421001
2.43,0.5626698644598442,-1.5424318941574426
2.44,0.5472455455182698,-1.5472537075786243
2.45,0.5317730084424835,-1.5489665481443853
2.46,0.5162833429610397,-1.5475763170921601
2.47,0.5008075797901181,-1.5430951040989074
2.48,0.48537662874912907,-1.5355411445364364
2.49,0.4700212173037647,-1.5249387645635801
2.5,0.4547718296581289,-1.5113183142015152
2.5100000000000002,0.43965864651611375,-1.4947160885621333
2.52,0.42471148563049244,-1.4751742374225454
2.5300000000000002,0.409959743256267,-1.4527406633615312
2.54,0.3954323366226517,-1.4274689086959769
2.5500000000000003,0.3811576475356919,-1.3994180314770273
2.56,0.36716346722092164,-1.3686524708267804
2.57,0.3534769425126538,-1.335241901916831
2.58,0.34012452349348554,-1.2992610809097775
2.59,0.3271319126843878,-1.2607896802039258
2.6,0.3145240158823485,-1.2199121143397837
2.61,0.3023248947389507,-1.1767173569445546
2.62,0.2905577211695051,-1.131298749107622
2.63,0.2792447336784289,-1.083753799595985
2.64,0.26840719568246907,-1.0341839773336907
2.65,0.25806535590913215,-0.982694496583516
2.66,0.248238410943297,-0.9293940952824249
2.67,0.23894446999047275,-0.8743948069946722
2.68,0.23020052192052604,-0.8178117269577934
2.69,0.2220224046509481,-0.7597627727071096
2.7,0.21442477692387701,-0.7003684397737636
2.71,0.20742109252613938,-0.6397515529596702
2.72,0.2010235769965427,-0.5780370137000997
2.73,0.1952432068595417,-0.5153515440309078
2.74,0.19008969141923263,-0.4518234276826616
2.75,0.185571457142406,-0.38758224882809483
2.7600000000000002,0.18169563465412505,-0.32275862901243557
2.77,0.1784680483640007,-0.2574839627981984
2.7800000000000002,0.1758932087360187,-0.19189015265700754
2.79,0.17397430720944865,-0.12610934364092627
2.8000000000000003,0.1727132137730394,-0.06027365836461136
2.81,0.17211047718939326,0.00548506717260383
2.82,0.1721653278611193,0.07103554639886214
2.83,0.17287568332510792,0.136247303094644
2.84,0.17423815635605436,0.20099092991414919
2.85,0.17624806565519585,0.26513834399336755
2.86,0.17889944909512953,0.3285630391423615
2.87,0.18218507948655316,0.3911403341276238
2.88,0.1860964828278294,0.45274761655967505
2.89,0.19062395899342616,0.5132645819113107
2.9,0.19575660481253926,0.5725734672030689
2.91,0.20148233948456995,0.6305592789045457
2.92,0.20778793227361542,0.6871100146131089
2.93,0.21465903241974651,0.7421168780853203
2.94,0.2220802012005997,0.7954744872109445
2.95,0.23003494607270916,0.8470810745347699
2.96,0.23850575681805686,0.8968386799475542
2.97,0.2474741436175324,0.944653335184205
2.98,0.25692067696937443,0.9904352397847775
2.99,0.2668250293672222,1.0340989281919788
3.0,0.277166018649142,1.0755634276775745
3.0100000000000002,0.2879216529259177,1.1147524068093582
3.02,0.2990691769940113,1.151594314190128
3.0300000000000002,0.3105851201359126,1.186022507220375
3.04,0.32244534520811635,1.2179753706570906
3.0500000000000003,0.3346250989146873,1.2473964247621818
3.06,0.3470990631623091,1.2742344228554334
3.0700000000000003,0.35984140739086345,1.2984434381086944
3.08,0.3728258417719504,1.3199829394399782
3.09,0.38602567116635017,1.3388178563883883
3.1,0.3994138497302341,1.3549186328731764
3.11,0.41296303605896584,1.3682612697627636
3.12,0.4266456487565935,1.3788273562021567
3.13,0.44043392231861506,1.3866040896698273
3.14,0.45429996321531335,1.391584284757755
3.15,0.4682158060628909,1.3937663706909036
3.16,0.48215346976979995,1.393154377624871
3.17,0.49608501354604867,1.3897579117827865
3.18,0.5099825926638766,1.3835921195146628
3.19,0.5238185138590232,1.3746776403843142
3.2,0.5375652902628664,1.363040549410588
3.21,0.5511956957569722,1.3487122886109617
3.22,0.5646828186430819,1.3317295880165125
3.23,0.5780001145232471,1.3121343763478135
3.24,0.5911214582867252,1.2899736815614251
3.25,0.6040211951023395,1.265299521496273
3.2600000000000002,0.6166741903173023,1.2381687848683238
3.27,0.6290558781659855,1.2086431028805218
3.2800000000000002,0.6411423091947908,1.176788711732922
3.29,0.65291019631212,1.1426763063352994
3.3000000000000003,0.664336959375473,1.106380885541199
3.31,0.675400768230885,1.0679815892383984
3.3200000000000003,0.686080584123269,1.0275615276460295
3.33,0.6963561993997293,0.9852076031831456
3.34,0.7062082754315607,0.941010325287284
3.35,0.7156183786844336,0.8950636185745354
3.36,0.7245690148701789,0.847464624744776
3.37,0.7330436611176266,0.7983134986470164
3.38,0.7410267961040968,0.747713198930256
3.39,0.7485039280933994,0.6957692737147854
3.4,0.7554616208305472,0.6425896417275315
3.41,0.7618875172478226,0.5882843693527844
3.42,0.7677703609413504,0.532965444056456
3.43,0.773100015381915,0.4767465446479036
3.44,0.777867480828394,0.4197428088482811
3.45,0.7820649089168767,0.3620705986383609
3.46,0.7856856149032604,0.3038472638617937
3.47,0.7887240875418783,0.24519090456183268
3.48,0.7911759965874966,0.18622013253064784
3.49,0.7930381979128031,0.1270538325504953
3.5,0.794308736238308,0.06781092380518221
3.5100000000000002,0.7949868454763598,0.008610121938494683
3.52,0.7950729466957447,-0.050430297766469755
3.5300000000000002,0.79456864371808,-0.10919273561678634
3.54,0.7934767163619122,-0.16756050068231843
3.5500000000000003,0.791801111355089,-0.22541804145128927
3.56,0.7895469309405762,-0.28265117351505065
3.5700000000000003,0.7867204192054257,-0.3391473038355906
3.58,0.7833289461670698,-0.3947956511574978
3.59,0.7793809896554948,-0.4494874621351243
3.6,0.7748861150341436,-0.5031162227555477
3.61,0.7698549528065881,-0.5555778646485987
3.62,0.7642991741601022,-0.6067709658866733
3.63,0.7582314645012355,-0.6565969458892604
3.64,0.7516654950423428,-0.7049602540600612
3.65,0.7446158925017422,-0.7517685517982295
3.66,0.7370982069837599,-0.7969328875395868
3.67,0.729128878108364,-0.8403678644986409
3.68,0.7207251994633777,-0.8819918007978205
3.69,0.7119052814553994,-0.9217268816865068
3.7,0.7026880126385344,-0.9594993035691542
3.71,0.6930930196028429,-0.9952394095790154
3.72,0.6831406255070527,-1.0288818164516889
3.73,0.6728518073425358,-1.060365532470841
3.74,0.6622481520178274,-1.0896340662769939
3.75,0.6513518113550575,-1.1166355263491743
3.7600000000000002,0.6401854560915657,-1.1413227109884398
3.77,0.6287722289816814,-1.1636531886518109
3.7800000000000002,0.6171356970951632,-1.1835893685048882
3.79,0.6052998034101144,-1.2010985610813965
3.8000000000000003,0.5932888177993004,-1.2161530289580122
3.81,0.5811272875097203,-1.2287300273730823
3.8200000000000003,0.5688399872359895,-1.238811834738161
3.83,0.5564518688886079,-1.246385773011668
3.84,0.5439880111584912,-1.2514442179243312
3.85,0.5314735689792478,-1.2539845990664078
3.86,0.5189337229885838,-1.2540093898669253
3.87,0.5063936290899145,-1.2515260875153074
3.88,0.4938783682147614,-1.2465471828957138
3.89,0.48141289638580426,-1.2390901206241876
3.9,0.4690219951795624,-1.2291772492982274
3.91,0.4567302226865801,-1.2168357620876487
3.92,0.4445618650657036,-1.2020976278145263
3.93,0.43254088878755836,-1.1849995126885944
3.94,0.4206908936606724,-1.1655826928826631
3.95,0.4090350667318458,-1.1438929581503843
3.96,0.397596137150342,-1.1199805067060016
3.97,0.38639633208328195,-1.09389983160254
3.98,0.37545733376725654,-1.0657095988611835
3.99,0.36480023777864473,-1.035472517620329
4.0,0.35444551260244145,-1.0032552025879562
4.01,0.3444129605765619,-0.9691280290955047
4.0200000000000005,0.33472168028560684,-0.9331649810653395
4.03,0.32539003047495346,-0.8954434922171342
4.04,0.3164355955527821,-0.8560442808510392
4.05,0.30787515274427174,-0.8150511785573404
4.0600000000000005,0.29972464095869833,-0.772550953213408
4.07,0.29199913142656425,-0.7286331266390806
4.08,0.2847128001601734,-0.683389787291198
4.09,0.2778789022872614,-0.6369153983867767
4.1,0.27150974830339364,-0.5893066018522951
4.11,0.2656166822848707,-0.5406620185037123
4.12,0.26021006209983355,-0.49108204486816787
4.13,0.25529924165115186,-0.4406686470637937
4.14,0.25089255518051395,-0.38952515215870515
4.15,0.24699730365892691,-0.3377560374340144
4.16,0.24361974328458677,-0.2854667179786297
4.17,0.24076507610480047,-0.23276333304565391
4.18,0.23843744277434392,-0.17975253160138574
4.19,0.23663991745833007,-0.12654125749824757
4.2,0.2353745048833476,-0.07323653470242233
4.21,0.23464213953632337,-0.01994525300557974
4.22,0.23444268700626758,0.033226045352183486
4.23,0.2347749474597894,0.08617137772416905
4.24,0.23563666123703111,0.13878553134359034
4.25,0.23702451655046702,0.19096427143946618
4.26,0.2389341592648617,0.24260454677217544
4.2700000000000005,0.24136020473258346,0.29360469218534224
4.28,0.24429625165443689,0.34386462777789883
4.29,0.24773489793221587,0.39328605430812197
4.3,0.2516677584752971,0.4417726444501382
4.3100000000000005,0.2560854849197985,0.4892302295328281
4.32,0.26097778721512677,0.5355669814012043
4.33,0.2663334570291388,0.5806935890511729
4.34,0.27214039291965053,0.6245234297000892
4.3500000000000005,0.27838562721665144,0.6669727339676587
4.36,0.285055354556328,0.7079607448544901
4.37,0.29213496200487293,0.747409870218952
4.38,0.29960906070706245,0.7852458284668826
4.39,0.3074615189917313,0.8213977871831357
4.4,0.31567549686356267,0.8557984944488738
4.41,0.3242334818080514,0.8883844026039169
