time,position,velocity
0.0,0.0,0.0
0.01,0.0,0.1
0.02,0.001,0.1995
0.03,0.0029950000000000003,0.2983025
0.04,0.0059780250000000005,0.39621198750000003
0.05,0.009940144875000001,0.49303532256250004
0.06,0.014870498100625,0.5885821169746875
0.07,0.020756319270371876,0.5841521565797516
0.08,0.026597840836169392,0.6770801319427785
0.09,0.03336864215559718,0.7683751631158308
0.1,0.04105239378675549,0.8578595588691321
0.11,0.049630989375446806,0.9453597823174353
0.12,0.05908458719862116,1.0307067855307588
0.13,0.06939165505392875,1.1137363341633808
0.14,0.08052901839556256,1.1942893214817782
0.15,0.09247191161038035,1.272212071195257
0.16,0.10519403232233292,1.3473566285172045
0.17,0.11866759860750496,1.419581038910152
0.18,0.13286340899660648,1.4887496139941003
0.19,0.14775090513654748,1.5547331841248084
0.2,0.16329823697779558,1.617409337176875
0.21,0.17947233034956434,1.6766626430954314
0.22,0.19623895678051864,1.7323848638100414
0.23,0.21356280541861905,1.7844751481348875
0.24,0.23140755689996792,1.8328402113104894
0.25,0.24973595901307283,1.8773944988739433
0.26,0.26850990400181224,1.918060334576959
0.27,0.28769050734758184,1.9547680521037116
0.28,0.30723818786861895,1.9874561103736768
0.29,0.3271127489723557,2.0160711922480847
0.3,0.34727346089483657,2.0405682864923733
0.31,0.3676791437597603,2.060910752880944
0.32,0.38828825128856975,2.0770703703645874
0.33,0.4090589549922156,2.0890273682550506
0.34,0.42994922867476615,2.0967704404153324
0.35000000000000003,0.45091693307891945,2.1002967424783026
0.36,0.47191990050370247,2.099611872150127
0.37,0.4929160192252037,2.094729832688636
0.38,0.5138633175520901,2.085672979680152
0.39,0.5347200473488917,2.072471951271333
0.4,0.555444766861605,2.055165582045198
0.41000000000000003,0.575996422682057,2.033800800762651
0.42,0.5963344306896835,2.0084325122224267
0.43,0.6164187558119077,1.9791234635233779
0.44,0.6362099904471415,1.9459440950433795
0.45,0.6556694313975754,1.9089723764787343
0.46,0.6747591551623627,1.8682936283168254
0.47000000000000003,0.693442091445531,1.8240003291427687
0.48,0.7116820947369588,1.7761919092079486
0.49,0.7294440138290382,1.724974530714517
0.5,0.7466937591361834,1.6704608552951368
0.51,0.7633983676891348,1.6127697991914245
0.52,0.7795260656810491,1.5520262766576405
0.53,0.7950463284476255,1.4883609321381424
0.54,0.8099299377690069,1.4219098617879267
0.55,0.8241490363868862,1.3528143249251856
0.56,0.8376771796361381,1.2812204460231824
0.5700000000000001,0.8504893840963699,1.2072789078658388
0.58,0.8625621731750283,1.1311446365072357
0.59,0.8738736195401006,1.0529764786896938
0.6,0.8844033843269975,0.9729368723882252
0.61,0.8941327530508798,0.8911915111608846
0.62,0.9030446681624886,0.8079090029949042
0.63,0.9111237581924376,0.7232605243474319
0.64,0.918356363435912,0.6374194700872072
0.65,0.9247305581367841,0.5505611000495888
0.66,0.9302361691372799,0.46286218292198406
0.67,0.9348647909664998,0.3745006381799182
0.68,0.938609797348299,0.2856551767957186
0.6900000000000001,0.9414663491162562,0.19650494144208022
0.7000000000000001,0.9434313985306769,0.10722914691161858
0.71,0.9445036899997931,0.018006721470925094
0.72,0.9446837572145023,-0.07098405013638814
0.73,0.9439739167131384,-0.15956588132860666
0.74,0.9423782578998523,-0.2475628352645913
0.75,0.9399026295472064,-0.3348006726682388
0.76,0.936554622820524,-0.4211071952143389
0.77,0.9323435508683806,-0.5063125838023721
0.78,0.9272804250303569,-0.5902497310570364
0.79,0.9213779277197865,-0.6727545674078226
0.8,0.9146503820457084,-0.7536663801147407
0.81,0.907113718244561,-0.8328281246233087
0.8200000000000001,0.8987854369983279,-0.9100867276491044
0.8300000000000001,0.8896845697218368,-0.9852933814105245
0.84,0.8798316359077316,-1.0583038284478392
0.85,0.8692485976232532,-1.1289786364871464
0.86,0.8579588112583818,-1.1971834628293614
0.87,0.8459869766300881,-1.262789307766891
0.88,0.8333590835524193,-1.3256727565540742
0.89,0.8201023559868785,-1.3857162094817876
0.9,0.8062451938920606,-1.4428080996317545
0.91,0.7918171128957431,-1.4968430979120078
0.92,0.776848681916623,-1.5477223050015962
0.93,0.7613714588666071,-1.5953534298599128
0.9400000000000001,0.7454179245680079,-1.6396509544839346
0.9500000000000001,0.7290214150231685,-1.6805362846251166
0.96,0.7122160521769174,-1.7179378862066248
0.97,0.6950366733148512,-1.7517914072109753
0.98,0.6775187592427414,-1.7820397848378906
0.99,0.6596983613943626,-1.8086333377622494
1.0,0.6416120280167401,-1.8315298433523106
1.01,0.623296729583217,-1.850694599738897
1.02,0.604789783585828,-1.866100472656846
1.03,0.5861287788592595,-1.8777279270107274
1.04,0.5673514995891522,-1.8855650431475257
1.05,0.5484958491576769,-1.8896075178496186
1.06,0.5295997739791807,-1.889858650091906
1.07,0.5107011874782617,-1.8863293116372826
1.08,0.49183789436188885,-1.8790379025747486
1.09,0.47304751533614137,-1.8680102919342525
1.1,0.45436741241679884,-1.8532797435418096
1.11,0.43583461498138076,-1.8348868273074603
1.12,0.4174857467083062,-1.8128793161671992
1.1300000000000001,0.3993569535466342,-1.7873120689280244
1.1400000000000001,0.38148383285735393,-1.7582468992927112
1.1500000000000001,0.36390136386442684,-1.7257524313677184
1.16,0.3466438395507497,-1.6899039419837651
1.17,0.329744800130912,-1.6507831901839962
1.18,0.31323696822907204,-1.6084782342592587
1.19,0.29715218588647946,-1.5630832367337768
1.2,0.2815213535191417,-1.5146982577274037
1.21,0.26637437094186767,-1.463429037142595
1.22,0.2517400805704417,-1.4093867661452557
1.23,0.23764621290898916,-1.3526878484286178
1.24,0.22411933442470297,-1.2934536517682724
1.25,0.21118479790702024,-1.2318102503943718
1.26,0.19886669540307653,-1.167888158723804
1.27,0.1871878138158385,-1.1018220570108002
1.28,0.17616959324573048,-1.033750509488914
1.29,0.16583208815084133,-0.9638156755906154
1.3,0.15619393139493518,-0.8921630148428306
1.31,0.14727230124650686,-0.8189409860476035
1.32,0.13908289138603083,-0.7443007413666668
1.33,0.13163988397236417,-0.6683958159370396
1.34,0.12495592581299378,-0.5913818136518272
1.35,0.11904210767647551,-0.5134160897461668
1.36,0.11390794677901384,-0.4346574308327311
1.37,0.10956137247068652,-0.3552657330343702
1.3800000000000001,0.10600871514034282,-0.27540167886333566
1.3900000000000001,0.10325469835170947,-0.19522641349708753
1.4000000000000001,0.1013024342167386,-0.11490122109994398
1.41,0.10015342200573915,-0.03458720183779197
1.42,0.09980754998736123,0.04555504977024914
1.43,0.10026310048506372,0.12536576452392567
1.44,0.10151675813030298,0.2046863156042933
1.45,0.10356362128634591,0.2833595324002113
1.46,0.10639721661034802,0.36123001048094106
1.47,0.11000951671515743,0.43814441710646673
1.48,0.11439096088622211,0.513951791677903
1.49,0.11953047880300113,0.588503840542269
1.5,0.1254155172084238,0.6616552255789574
1.51,0.1320320694642134,0.7332638460093779
1.52,0.13936470792430716,0.8031911128864884
1.53,0.14739661905317206,0.8713022157371945
1.54,0.156109641210544,0.937466380847874
1.55,0.16548430501902273,1.001557120701526
1.56,0.175499876226038,1.0634524740942137
1.57,0.18613440096698014,1.123035236478535
1.58,0.19736475333176548,1.1801931801027463
1.59,0.20916668513279293,1.2348192635358795
1.6,0.22151487776815174,1.2868118301916416
1.61,0.23438299607006816,1.336074795487053
1.62,0.24774374402493868,1.3825178222956043
1.6300000000000001,0.26156892224789474,1.4260564843791386
1.6400000000000001,0.27582948709168614,1.466612417507664
1.6500000000000001,0.29049561126676277,1.5041134580017885
1.6600000000000001,0.30553674584678064,1.538493768458427
1.67,0.3209216835313649,1.5696939504467788
1.68,0.3366186230358327,1.597661143988272
1.69,0.3525952344757154,1.622349113661164
1.7,0.36881872561232704,1.643718321197715
1.71,0.38525590882430416,1.6617359844692612
1.72,0.40187326866899675,1.676376122782054
1.73,0.4186370298968173,1.6876195884343443
1.74,0.4355132257811607,1.6954540845128092
1.75,0.4524677666262888,1.699874168934013
1.76,0.4694665083156289,1.7008812447640853
1.77,0.48647532076326977,1.6984835368771392
1.78,0.5034601561320412,1.6926960550400996
1.79,0.5203871166824422,1.683540543538491
1.8,0.5372225221178271,1.6710454174843101
1.81,0.5539329762926701,1.655245685973323
1.82,0.5704854331524034,1.6361828622849224
1.83,0.5868472617752526,1.6139048613430171
1.84,0.6029863103886828,1.5884658846812516
1.85,0.6188709692354953,1.5599262931801088
1.86,0.6344702321672965,1.5283524678671092
1.87,0.6497537568459676,1.4938166590943143
1.8800000000000001,0.6646919234369107,1.4563968244296492
1.8900000000000001,0.6792558916812073,1.4161764556201188
1.9000000000000001,0.6934176562374085,1.3732443950057769
1.9100000000000001,0.7071501001874663,1.3276946417832662
1.92,0.7204270466052989,1.2796261485368567
1.93,0.7332233080906675,1.2291426084731127
1.94,0.7455147341753986,1.1763522338126138
1.95,0.7572782565135248,1.121367525808471
1.96,0.7684919317716095,1.0643050368767237
1.97,0.7791349821403767,1.0052851253380182
1.98,0.7891878333937569,0.9444317032832528
1.99,0.7986321504265894,0.8818719780880852
2.0,0.8074508702074703,0.8177361881123268
2.0100000000000002,0.8156282320885936,0.7521573331302711
2.02,0.8231498054198962,0.685270900046901
2.0300000000000002,0.8300025144203652,0.6172145844626873
2.04,0.8361746602649921,0.5481280086563008
2.05,0.8416559403515551,0.47815243656002093
2.06,0.8464374647171553,0.4074304863069098
2.07,0.8505117695802245,0.3361058409319442
2.08,0.8538728279895439,0.26432295781123955
2.09,0.8565160575676563,0.19222677742427458
2.1,0.858438325341899,0.11996243202362195
2.11,0.8596379496621352,0.04767495479512403
2.12,0.8601146992100865,-0.024491009911278644
2.13,0.8598697891109738,-0.09639149470373956
2.14,0.8589058741639364,-0.16788349505241562
2.15,0.8572270392134123,-0.2388252524099408
2.16,0.8548387866893129,-0.30907653399057355
2.17,0.8517480213494072,-0.3784989086584833
2.18,0.8479630322628223,-0.4469560183850723
2.19,0.8434934720789716,-0.5143138447457114
2.2,0.8383503336315146,-0.5804409699377772
2.21,0.8325459239321368,-0.6452088318143911
2.22,0.8260938356139929,-0.7084919724417466
2.23,0.8190089158895754,-0.7701682797023364
2.24,0.811307233092552,-0.8301192214817398
2.25,0.8030060408777346,-0.8882300719928415
2.2600000000000002,0.7941237401578062,-0.9443901298084243
2.27,0.7846798388597219,-0.9984929271909434
2.2800000000000002,0.7746949095878125,-1.0504364303269331
2.29,0.7641905452845432,-1.100123230092861
2.3000000000000003,0.7531893129836146,-1.1474607229993052
2.31,0.7417147057536215,-1.1923612819810316
2.32,0.7297910929338112,-1.2347424167218508
2.33,0.7174436687665927,-1.2745269232250038
2.34,0.7046983995343427,-1.3116430223621973
2.35,0.6915819693107207,-1.3460244871572549
2.36,0.6781217244391481,-1.3776107585836128
2.37,0.664345616853312,-1.4063470496785244
2.38,0.6502821463565267,-1.4321844378007942
2.39,0.6359603019785187,-1.4550799448830956
2.4,0.6214095025296877,-1.4749966055543837
2.41,0.606659536474144,-1.4919035230325493
2.42,0.5917405012438185,-1.5057759127122152
2.43,0.5766827421166963,-1.516595133397418
2.44,0.5615167907827222,-1.5243487061537702
2.45,0.5462733037211845,-1.5290303207795457
2.46,0.5309830005133891,-1.530639829919885
2.47,0.5156766022141902,-1.5291832308729634
2.48,0.5003847699054605,-1.5246726351614366
2.49,0.48513804355384615,-1.5171262259667215
2.5,0.46996678129417896,-1.506568203547657
2.5100000000000002,0.45490109925870237,-1.4930287187887545
2.52,0.43997081207081484,-1.4765437950465512
2.5300000000000002,0.4252053741203493,-1.4571552384854813
2.54,0.4106338217354945,-1.4349105371171238
2.5500000000000003,0.3962847163643233,-1.409862748778637
2.56,0.3821860888765369,-1.3820703783076085
2.57,0.3683653850934608,-1.3515972441913777
2.58,0.354849412651547,-1.318512334989113
2.59,0.3416642893016559,-1.282889655844477
2.6,0.3288353927432111,-1.2448080654255858
2.61,0.31638731208895526,-1.2043511036471
2.62,0.30434380105248426,-1.1616068105466555
2.63,0.2927277329470177,-1.116667536704419
2.64,0.2815610575799735,-1.0696297456103003
2.65,0.2708647601238705,-1.0205938083982435
2.66,0.26065882203988805,-0.9696637913810264
2.67,0.2509621841260778,-0.9169472368320989
2.68,0.2417927117577568,-0.8625549374731539
2.69,0.23316716238302526,-0.8066007051373395
2.7,0.22510115533165187,-0.7492011340882578
2.71,0.2176091439907693,-0.690475359484147
2.72,0.21070439039592784,-0.6305448114848801
2.73,0.20439894228107905,-0.5695329655066412
2.74,0.19870361262601263,-0.5075650891353238
2.75,0.1936279617346594,-0.44476798621484975
2.7600000000000002,0.1891802818725109,-0.3812697386307074
2.77,0.18536758448620383,-0.31719944631205604
2.7800000000000002,0.18219559002308328,-0.25268696597773654
2.79,0.17966872036330592,-0.18786264915246453
2.8000000000000003,0.17779009387178127,-0.12285707997936339
2.81,0.17656152307198764,-0.05780081335382281
2.82,0.1759835149384494,0.007175886098548759
2.83,0.1760552737994349,0.07194330368036614
2.84,0.17677470683623855,0.1363725324020773
2.85,0.17813843216025932,0.2003357283728192
2.86,0.1801417894439875,0.2637063632989033
2.87,0.18277885307697656,0.3263594735936113
2.88,0.18604244781291268,0.3881719056102479
2.89,0.18992416686901517,0.4490225565196141
2.9,0.19441439243421132,0.508792610363213
2.91,0.19950231853784345,0.5673657688245547
2.92,0.205175976226089,0.6246284762728632
2.93,0.2114222609888176,0.6804701386462811
2.94,0.21822696237528041,0.7347833357552862
2.95,0.2255747957328333,0.7874640266014536
2.96,0.23344943599884782,0.8384117473218797
2.97,0.24183355347206661,0.8875298013855007
2.98,0.25070885148592165,0.9347254416841599
2.99,0.26005610590276323,0.9799100441785548
3.0,0.2698552063445488,1.0229992727771093
3.0100000000000002,0.2800851990723199,1.0639132351443141
3.02,0.290724331423763,1.1025766291541286
3.0300000000000002,0.3017500977153043,1.1389188797236054
3.04,0.31313928651254036,1.1728742657819264
3.0500000000000003,0.3248680291703596,1.2043820371505087
3.06,0.3369118495418647,1.2333865211306843
3.0700000000000003,0.34924571475317157,1.259837218616658
3.08,0.36184408693933817,1.2836888895729404
3.09,0.3746809758350676,1.304901627737208
3.1,0.3877299921124397,1.3234409244315086
3.11,0.40096440135675476,1.3392777213868632
3.12,0.4143571785706234,1.3523884525085779
3.13,0.42788106309570917,1.3627550745319104
3.14,0.4415086138410283,1.370365086540109
3.15,0.4552122647064294,1.3752115383392027
3.16,0.46896438008982144,1.3772930277062208
3.17,0.48273731036688367,1.3766136865497254
3.18,0.49650344723238093,1.3731831560436
3.19,0.5102352787928169,1.3670165508169059
3.2,0.523905444300986,1.358134412304258
3.21,0.5374867884240285,1.3465626513825395
3.22,0.550952414937854,1.3323324804408212
3.23,0.5642757397422622,1.3154803350510462
3.24,0.5774305430927726,1.2960477854273385
3.25,0.590391020947046,1.2740814378816472
3.2600000000000002,0.6031318353258625,1.2496328265028298
3.27,0.6156281635908908,1.2227582953051432
3.2800000000000002,0.6278557465439423,1.1935188711104394
3.29,0.6397909352550467,1.1619801274460988
3.3000000000000003,0.6514107365295077,1.128212039757859
3.31,0.6626928569270862,1.092288832253168
3.3200000000000003,0.6736157452496179,1.054288816706485
3.33,0.6841586334166827,1.014294223573029
3.34,0.694301575652413,0.9723910257718273
3.35,0.7040254859101313,0.9286687555124856
3.36,0.7133121734652561,0.883220314552897
3.37,0.7221443766107851,0.8361417782870812
3.38,0.7305057943936559,0.7875321940734888
3.39,0.7383811163343909,0.7374933742243902
3.4,0.7457560500766347,0.6861296840863901
3.41,0.7526173469174986,0.6335478256506312
3.42,0.7589528251740049,0.5798566171388783
3.43,0.7647513913453936,0.5251667690183829
3.44,0.7700030590355774,0.46959065690421226
3.45,0.7746989656046196,0.4132420918125757
3.46,0.7788313865227453,0.3562360882325889
3.47,0.7823937474050712,0.2986886304868769
3.48,0.7853806337099399,0.24071643785342828
3.49,0.7877877980884742,0.18243672892217314
3.5,0.789612165377696,0.12396698565986743
3.5100000000000002,0.7908518352342946,0.06542471765602889
3.52,0.7915060824108548,0.006927227020889826
3.5300000000000002,0.7915753546810638,-0.05140862559638559
3.54,0.7910612684250999,-0.10946665340461642
3.5500000000000003,0.7899666018910537,-0.16713157382261332
3.56,0.7882952861528276,-0.224289236331711
3.5700000000000003,0.7860523937895105,-0.28082684738061797
3.58,0.7832441253157043,-0.336633191901617
3.59,0.7798777933966882,-0.39159885100524977
3.6,0.7759618048866357,-0.44561641542956115
3.61,0.7715056407323401,-0.4985806943297405
3.62,0.7665198337890426,-0.5503889190045598
3.63,0.761015944598997,-0.6009409411673455
3.64,0.7550065351873235,-0.6501394253813082
3.65,0.7485051409335104,-0.6978900352918663
3.66,0.7415262405805917,-0.7441016133021091
3.67,0.7340852244475706,-0.7886863533517169
3.68,0.7261983609140534,-0.8315599664744724
3.69,0.7178827612493087,-0.8726418388249108
3.7,0.7091563428610597,-0.911855181880648
3.71,0.7000377910422532,-0.9491271745434566
3.72,0.6905465192968187,-0.98438909687919
3.73,0.6807026283280267,-1.0175764552541577
3.74,0.6705268637754852,-1.0486290986434923
3.75,0.6600405727890503,-1.0774913259053718
3.7600000000000002,0.6492656595299966,-1.104111983833655
3.77,0.63822453969166,-1.128444555820486
3.7800000000000002,0.6269400941334552,-1.1504472409797157
3.79,0.6154356217236581,-1.1700830236015083
3.8000000000000003,0.603734791487643,-1.1873197328282323
3.81,0.5918615941593607,-1.2021300924616198
3.8200000000000003,0.5798402932347445,-1.2144917608311838
3.83,0.5676953756264327,-1.2243873606739768
3.84,0.555451502019693,-1.2318044989958934
3.85,0.543133457029734,-1.2367357769048526
3.86,0.5307660992606855,-1.2391787894262751
3.87,0.5183743113664228,-1.2391361153312808
3.88,0.5059829502131099,-1.236615297027909
3.89,0.4936167972428308,-1.2316288105853914
3.9,0.4813005091369769,-1.2241940259810307
3.91,0.4690585688771666,-1.2143331576785208
3.92,0.4569152373003814,-1.2020732056655614
3.93,0.4448945052437258,-1.18744588709731
3.94,0.4330200463727527,-1.1704875587105685
3.95,0.421315170785647,-1.1512391301915663
3.96,0.40980277948373134,-1.1297459686977378
3.97,0.39850531979675397,-1.1060577947509953
3.98,0.387444741849244,-1.0802285697365912
3.99,0.3766424561518781,-1.0523163752577571
4.0,0.3661192923993005,-1.022383284611844
4.01,0.3558954595531821,-0.9904952266686448
4.0200000000000005,0.3459905072864956,-0.9567218424459379
4.03,0.3364232888620362,-0.9211363346910073
4.04,0.3272119255151261,-0.8838153107899596
4.05,0.31837377240722653,-0.844838619339035
4.0600000000000005,0.3099253862138362,-0.8042891807237852
4.07,0.30188249440659837,-0.7622528120629335
4.08,0.294259966285969,-0.7188180468839385
4.09,0.2870717858171296,-0.6740759499067126
4.1,0.2803310263180625,-0.628119927320605
4.11,0.2740498270448565,-0.5810455329476144
4.12,0.2682393717153803,-0.5329502706918476
4.13,0.26290986900846186,-0.4839333936814645
4.14,0.25807053507164723,-0.43409570051474955
4.15,0.25372957806649976,-0.3835393290265052
4.16,0.2498941847762347,-0.33236754799467266
4.17,0.246570509296288,-0.28068454720994623
4.18,0.24376366382418851,-0.2285952263331541
4.19,0.24147771156085698,-0.17620498296632603
4.2,0.2397156617311937,-0.1236195003636658
4.21,0.23847946672755704,-0.07094453520808622
4.22,0.23777002137547618,-0.018285705877557186
4.23,0.2375871643167006,0.034251718376735366
4.24,0.23792968150046795,0.08656302692151158
4.25,0.23879531176968308,0.13854427548681042
4.26,0.24018075452455118,0.19009249175543974
4.2700000000000005,0.24208167944210557,0.24110587839175232
4.28,0.2444927382260231,0.29148401311137245
4.29,0.24740757835713684,0.341128045400611
4.3,0.25081885881114296,0.38994088950218053
4.3100000000000005,0.2547182677061648,0.43782741329244107
4.32,0.2590965418390892,0.4846946226847459
4.33,0.26394348806593665,0.5304518412035043
4.34,0.2692480064779717,0.5750108843842995
4.3500000000000005,0.2749981153218147,0.6182862286667836
4.36,0.2811809776084825,0.6601951744590868
4.37,0.28778292935307337,0.7006580030650948
4.38,0.29478950938372434,0.7395981271791547
4.39,0.30218549065551586,0.7769422346665141
4.4,0.30995491300218103,0.8126204253620783
4.41,0.3180811172558018,0.8465663406348317
